-0.00024699976409729235 -0.003226692346724916 -0.01969076430391099 -0.07444784963933364 -0.19491560019464751 -0.3739955820446218 -0.5432850375552218 -0.612004692471865 -0.5554047414514525 -0.4500614648392672 -0.397797082005048 -0.4224276764295432 -0.4638092363882728 -0.46629433420993793 -0.4416483557888133 -0.4359180771437159 -0.4606660070176642 -0.4803504347693403 -0.4608702023508484 -0.4132037681282997 -0.38626175169002613 -0.4214668375356865 -0.5122839735925286 -0.6052208889418738 -0.6449324427691326 -0.6234066444143512 -0.5834608418234708 -0.5724784846846094 -0.5974914792567841 -0.6287868996075388 -0.6395270070756824 -0.630438999695965 -0.6171993001813525 -0.6073430463200862 -0.5973815027189406 -0.5854720091969743 -0.5758348689402565 -0.5682405135606658 -0.5495279285718736 -0.5052053829128099 -0.4453680941467666 -0.41202987411418873 -0.4436129093647458 -0.5261790951818728 -0.5944238298138131 -0.5946959793018068 -0.541045355753467 -0.49680972647674304 -0.5038532804582293 -0.5432487688218248 -0.5678719922679007 -0.5595615666285596 -0.5419498333464509 -0.5426698552189043 -0.5586272160410862 -0.5648002614428935 -0.548746207517159 -0.5248341820910851 -0.5119785000346353 -0.5062105333355522 -0.48799042371544393 -0.459084955586586 -0.4563588790426541 -0.5104082178584488 -0.5949347883569136 -0.6410777873248503 -0.6121549597925545 -0.5480783983844452 -0.5208628196189868 -0.5550622618953951 -0.6082512097485983 -0.6272866272437859 -0.6066107093883697 -0.5839274106532686 -0.5894058853766986 -0.6128557281438588 -0.6222108811731367 -0.6044423999348859 -0.578568045720156 -0.5680668880239825 -0.5704675534055439 -0.5647239299760276 -0.5458339494766385 -0.5366513395974325 -0.5575897741020522 -0.5963674064085704 -0.6215392093540026 -0.6213095438638951 -0.6150070011309328 -0.6254784545667683 -0.6522607027463763 -0.6769834232339282 -0.6861866757711204 -0.680454130223072 -0.6658658269129012 -0.6470175950790428 -0.6295719416055934 -0.6201899012782671 -0.6170335671432052 -0.6039504792899631
-0.5621652464108788 -0.49236184838213803 -0.4247660573248765 -0.4017092753142179 -0.44110104455887045 -0.5133476403873074 -0.5613210276151779 -0.5514693138198133 -0.5043741693830669 -0.470416834537127 -0.4779783874086806 -0.5115361964255147 -0.5378877674923572 -0.5430670748747018 -0.538510567882249 -0.5387137228703373 -0.5436821642806918 -0.5441886879800425 -0.5355919849521312 -0.5212704632295132 -0.5073750011947042 -0.4992249493500444 -0.49871231938767907 -0.5013654649549387 -0.5028617588876925 -0.5129917009609986 -0.5504178274501452 -0.6110598398057373 -0.6539591246668323 -0.640548531086406 -0.5862714000681665 -0.5516370458402385 -0.5746249961778225 -0.6279516380553423 -0.6554280273924392 -0.6394378326136624 -0.614736665999691 -0.617412439319527 -0.6393314419238043 -0.6436445259023387 -0.6147018220060967 -0.5766886665346685 -0.5620087511456505 -0.5728430371205258 -0.5805768885364349 -0.559956464278449 -0.5202488962654835 -0.5012241436701306 -0.53367758302219 -0.6010730439076217 -0.6477459391225568 -0.6340819846190524 -0.579773973437911 -0.542407615485258 -0.5546381864076342 -0.5938346367470335 -0.6157102596909299 -0.6049975645190608 -0.5836834905583439 -0.5775683759216095 -0.5883157953814844 -0.5988438137296855 -0.5957047792362973 -0.5803634515234556 -0.5627331338569616 -0.5497253946625659 -0.5402298770305786 -0.5269513067936356 -0.5023383493296741 -0.4683786728250253 -0.44362584834717245 -0.45268403723241385 -0.4989456745383917 -0.55082270882684 -0.566810897820289 -0.537341748955635 -0.49369890814570666 -0.47167294434012624 -0.4744623660740045 -0.4787573663449106 -0.4708251613109701 -0.46309710494232026 -0.4724545625457545 -0.4938666609983166 -0.5063742480401775 -0.5015810516676281 -0.4940098637550478 -0.49934891871851445 -0.5116948272399848 -0.5114309129533858 -0.49283404581337464 -0.4747118157713892 -0.48052225727835024 -0.5123547803430655 -0.5486013350676561 -0.5667349444782548 -0.5662218471018923 -0.5684063963219935 -0.5940572297977257 -0.6406051527563736
-0.6810912520565708 -0.6866326682290929 -0.6523947315041536 -0.602764056446463 -0.5693150192127144 -0.5621058639250449 -0.5648053770033669 -0.5593119122295785 -0.5478771015342885 -0.5415903728754051 -0.5329185685191281 -0.49976555427995284 -0.4440114248730444 -0.4066407922001967 -0.4248036187670806 -0.4813257253389886 -0.5169708215501408 -0.49483781237083624 -0.4388597856715933 -0.40428252142961985 -0.42037402439835625 -0.46853091598425767 -0.5089722752221962 -0.5186407698689921 -0.5037678907790013 -0.48481883977320295 -0.4756587339422135 -0.4755931268361396 -0.4747127946328473 -0.4618408083015658 -0.43147081685784805 -0.3941894963858203 -0.3816863912626825 -0.425054332103073 -0.51483448763927 -0.5931284533314258 -0.6043946602025547 -0.5540877823471735 -0.5028623571658756 -0.5004481620786685 -0.5377295714601016 -0.5691624383891781 -0.5701697578630956 -0.5594594489997079 -0.5680451273677882 -0.6002725314741029 -0.6327636132217381 -0.6454383558517485 -0.6415189868562888 -0.6332959020032348 -0.6207611259891722 -0.6007900850355586 -0.5921654807304932 -0.6245905354923662 -0.6917532954541057 -0.7388727480728843 -0.7198762818849607 -0.6555426608919805 -0.6114199667302221 -0.6210293068370345 -0.6525655208495467 -0.65531748686477 -0.6190487828733732 -0.5746298578355353 -0.5485691671427185 -0.5358038576233736 -0.5170272848707025 -0.4862532734319164 -0.45120576125005296 -0.4144011053244187 -0.3696327482112251 -0.3232264509931358 -0.30684420523377076 -0.3503472332849335 -0.43885295251182915 -0.5142993305224914 -0.5331634978732829 -0.5135205168722405 -0.5107226892830837 -0.5515955932757526 -0.6085268034279597 -0.6396061752486024 -0.6382926931323116 -0.6324625215922549 -0.6426825146211445 -0.6574890634854117 -0.6534814823673567 -0.62792267034139 -0.5998596368957103 -0.5813207589092899 -0.5607720184132551 -0.5245273457672199 -0.48751873193392115 -0.48508891446847535 -0.527905877707916 -0.5789630438502045 -0.5892288445785526 -0.5516511249438567 -0.5090416310534505 -0.5096286308507807
-0.5618205941621995 -0.6310694881294334 -0.6735099322280769 -0.6705768378335488 -0.6359726029725726 -0.5955295474568331 -0.5640508780040232 -0.5403573756995727 -0.5183589509173636 -0.49662958354638226 -0.4778375814603551 -0.46529187295523544 -0.4628009313838462 -0.4724321439051874 -0.4874605993809071 -0.49190302453238344 -0.47465040575798395 -0.4441963676712411 -0.42399882952662277 -0.4313789181299557 -0.4632253250897924 -0.5034936860280376 -0.5431429981230091 -0.5888667909111699 -0.6462176876804847 -0.6934155059043379 -0.6856485217174324 -0.6021348284343299 -0.4835330878741522 -0.3996236674670929 -0.3759804769043061 -0.3755600748935818 -0.3610753112078558 -0.34818893123688266 -0.3744214740433911 -0.43447600499442407 -0.48036129319226983 -0.4872332306609558 -0.4899511732794897 -0.5369947749575966 -0.6241477338980282 -0.6971440096317483 -0.7167085704274063 -0.6981102583106567 -0.679462766440822 -0.6697246169227798 -0.6446705765717239 -0.5873484255828582 -0.5139123646172667 -0.4529613895899718 -0.41262590600671195 -0.3849688464863664 -0.3783166936709908 -0.41893832943494164 -0.5069222191168781 -0.5904883852184362 -0.6100038020288272 -0.5643962934345972 -0.5141906472895431 -0.5160405886158956 -0.568041820016113 -0.6238266017676046 -0.6482824644235574 -0.6480662069507985 -0.6502529479647312 -0.6641474716840892 -0.673781907680912 -0.66424844475584 -0.6427960633991249 -0.6274897076280017 -0.6212932992072963 -0.6070270661710778 -0.570953122066199 -0.5275252136948819 -0.513497210845022 -0.5506667955310123 -0.6151503138060973 -0.6533889065653207 -0.6362578033202607 -0.5930268308102832 -0.58259867179577 -0.6306221407904155 -0.7028224492111322 -0.7438127046502897 -0.7353005761730712 -0.7082028097251727 -0.7002902362613225 -0.713155437390502 -0.716489768340969 -0.687482865170537 -0.6355066027106571 -0.5875970304826821 -0.5583456645416272 -0.5389280483547587 -0.5110205558460273 -0.46658756942761365 -0.4171062685091911 -0.38733922324826314 -0.3955904031711283 -0.4333920575312241
-0.4671829010285697 -0.46891061682822255 -0.4477809273221343 -0.44561542595779857 -0.4950764229603724 -0.5838196124553309 -0.6638278282548197 -0.6959162888194415 -0.6823172917638262 -0.6560490423630425 -0.6429507219590638 -0.638789194563769 -0.6238507812165613 -0.5938530413593072 -0.5675840290234561 -0.561681845138439 -0.5668672297776576 -0.5602196017513352 -0.5390076526028517 -0.5275139360588778 -0.5424198879171497 -0.5633939826196356 -0.5543853184891941 -0.5117668649083572 -0.4744255226001871 -0.47943832388433333 -0.5192695843279558 -0.55378850822919 -0.5590645339780085 -0.5506538937342949 -0.5554996315666013 -0.5718291407040635 -0.5685119310436194 -0.5243359521230917 -0.45846454877833126 -0.4124825650767726 -0.4010938692700643 -0.3907373490119774 -0.34000398245914343 -0.2596504310345709 -0.21375072164349843 -0.24937624767859184 -0.3380105044782889 -0.40491430105103976 -0.412142363159455 -0.39409747658297406 -0.40830750474745353 -0.46770122359416966 -0.5331710639510112 -0.5650263952498995 -0.5658422219425935 -0.5681350651437896 -0.5909087435166104 -0.6205278332240738 -0.6330546310406641 -0.623858299797741 -0.6090552879181222 -0.6031390469610177 -0.6018763207500987 -0.5867660925460506 -0.5450164963266065 -0.4887172696319235 -0.45375217650052746 -0.4696704525821238 -0.5250416802381467 -0.5714574663209597 -0.5710612453906041 -0.5357695768163013 -0.5113924311777129 -0.5264293644995481 -0.5661776991320842 -0.5967252389775146 -0.6026738455378133 -0.594625822341122 -0.5876053158362937 -0.5840180662302044 -0.5784161943525099 -0.5697095727500301 -0.5629621260697133 -0.5621041687641761 -0.5645916863855429 -0.561999492788661 -0.5452107291089183 -0.5145912501814555 -0.48922991624790463 -0.4984406765775028 -0.5522522264545491 -0.6213701779260782 -0.658221623572596 -0.642749410179026 -0.601856376188977 -0.5801302450100412 -0.5946899682332425 -0.6217585052994281 -0.6256436147561796 -0.5964974784877217 -0.557220380405827 -0.5361383717234447 -0.539050352074775 -0.550080666055812
-0.5543968001171505 -0.5533363342571178 -0.5565828061638861 -0.5651384739873521 -0.5700347951757115 -0.5714949216907642 -0.5906917729517102 -0.6469791176747896 -0.7220047771916505 -0.7642962628966851 -0.7421993699668225 -0.6831976523449724 -0.6472252052752818 -0.6636015757273733 -0.7054906757454701 -0.7273576120061084 -0.7159502743556323 -0.6952690937869112 -0.6871930606677593 -0.6829734768575836 -0.6605867820858572 -0.618860431227846 -0.5790934350467302 -0.5548622660509587 -0.5369740483104043 -0.5146834966883693 -0.49693510184778306 -0.4983849749994733 -0.5122190145028358 -0.514063199850393 -0.4945592559303715 -0.475713920100087 -0.4885913270046028 -0.5395537566870999 -0.6027098675312557 -0.6441722729523658 -0.6523942439003025 -0.6453755541478721 -0.6476801197305556 -0.6609784536041271 -0.6623180894368276 -0.6343788627960133 -0.5897502822453079 -0.5559376288714232 -0.5419113817733799 -0.5332449637260558 -0.5188022895060805 -0.5061096545478077 -0.5051880341851702 -0.510181016918251 -0.5075312487494595 -0.4973115857885121 -0.49579003708095015 -0.5141785101203429 -0.541480733154906 -0.5553064598320699 -0.5477436982296428 -0.532445340735688 -0.5248054508026012 -0.5239059247498102 -0.5187696948500458 -0.5040417992780619 -0.48174171004280975 -0.4557632266640218 -0.43697791911807665 -0.44718504072526283 -0.49868092055283875 -0.5672507256623556 -0.6039434791898285 -0.5849997246025818 -0.5398881467393659 -0.5185927819299097 -0.5372104207659159 -0.5666871854108998 -0.5715415280616444 -0.5474033295687487 -0.5184827920396992 -0.5076946895669919 -0.5157183788006524 -0.5262358978953028 -0.524726540135904 -0.5078250977304324 -0.477985864545054 -0.441268854279664 -0.41669670230818157 -0.4337544073909213 -0.5014763928672972 -0.5836249683976591 -0.6251438769864619 -0.6093511625647113 -0.5753207060873639 -0.5715336745559044 -0.6031845100914873 -0.6347822326618754 -0.6369763127486014 -0.6166614021848973 -0.5996998658385431 -0.5966608414189531 -0.5955995763266752 -0.5838947636611372
-0.5642846792189771 -0.5445904319713338 -0.5219217868731582 -0.4905172000310888 -0.46289217642695935 -0.46519021797741184 -0.5024581449129688 -0.5422960749349802 -0.5480667489039103 -0.5219856184179621 -0.5010419613162997 -0.5125496661770108 -0.5470345056099 -0.5767757565924254 -0.5889030875579533 -0.5921108128112811 -0.5968810787201864 -0.6002267781461613 -0.59299131285938 -0.5759887797100995 -0.5615053895281023 -0.5569936289329546 -0.5528213696679659 -0.5344850238190786 -0.5071809317749393 -0.49675679979608617 -0.5176921639727758 -0.5481820293386341 -0.550972439054642 -0.5190389759266523 -0.48838902747758833 -0.49923937261400014 -0.5508263840117317 -0.6024712092045783 -0.6178664508050375 -0.6002981092573718 -0.5810531657294666 -0.5806742143807133 -0.5908368003977452 -0.5916647339749103 -0.5752374785236131 -0.5489949510577853 -0.5261364135956671 -0.5195483674494185 -0.537962064218977 -0.5779625042641737 -0.6208347892306892 -0.6461374218104422 -0.6519475736132396 -0.6561944105389362 -0.6727268797345141 -0.6899119701771808 -0.6814265679913833 -0.6391450057299585 -0.5866014917519126 -0.5540045192355793 -0.5456891379456259 -0.540569483200912 -0.5214566881152464 -0.4920293217690056 -0.46261581201015267 -0.434173435170646 -0.4097279853575928 -0.4110291917955489 -0.4596648928201284 -0.5383955055210969 -0.5942967879559731 -0.594608581283337 -0.5660852871964557 -0.5637426765105286 -0.6072248907687516 -0.6614440532769873 -0.6781424118922496 -0.6456774125841389 -0.5958184525442891 -0.5686084849161113 -0.5751375794172131 -0.5928954034240894 -0.5927882142146768 -0.5660842358147344 -0.5248971163730164 -0.48511558382670616 -0.4587784124581942 -0.45835246861472684 -0.4907349932905851 -0.5397573141150938 -0.5684390554278062 -0.5538956896599945 -0.5172729858209837 -0.5059805569592087 -0.5424544583199582 -0.5992880656429759 -0.6312967732346989 -0.6251299371277355 -0.6069886766639183 -0.6046448487040953 -0.6158956864484517 -0.6200561914650888 -0.6095728253845957 -0.5960840512855679
-0.5850826575874458 -0.5606136040274804 -0.5104913517426864 -0.4609913267755917 -0.4631410382528496 -0.533099730011245 -0.6211975786156508 -0.6578321447093968 -0.626148109212782 -0.5755177411452275 -0.5632510282637615 -0.5952647997282503 -0.6292889491172093 -0.6274298964394065 -0.5942488655631559 -0.5622781303725626 -0.5495114286849034 -0.5410482013737384 -0.513422351365406 -0.46699052668497204 -0.42360909386509316 -0.39560297002361794 -0.37304265155576477 -0.3487003558923376 -0.34033119752551977 -0.3698434589382642 -0.4259727598401174 -0.4702205685524309 -0.4851803442084564 -0.49524714499751915 -0.523628157730798 -0.5460197671738996 -0.5146047960101744 -0.427669050373591 -0.35102234380960623 -0.3568409523994635 -0.44843593111047336 -0.5530159509978361 -0.5867845383535397 -0.5262716569945816 -0.4218496109109879 -0.3488468065020158 -0.3490614341711991 -0.4161372530391367 -0.5229944730782445 -0.6452653230899619 -0.7565664224216793 -0.8223523531738135 -0.8200491769741861 -0.764106769493589 -0.6958077408522577 -0.6432833310094266 -0.6002716140515538 -0.5475609526689423 -0.48419679266286053 -0.427807845490621 -0.39161619825935884 -0.3751956053808176 -0.37577943827672955 -0.39181738658808557 -0.4107295439543959 -0.41147427070582604 -0.39463502299806585 -0.39745492084864154 -0.4546246122400526 -0.5433949529369407 -0.5920486055529479 -0.5570033233210409 -0.4771429771665207 -0.43444439080366004 -0.4677331419010794 -0.5428625914307387 -0.6053900283464945 -0.6407898059169458 -0.6722945582497857 -0.7151245340719824 -0.7544185132209986 -0.7705741959219936 -0.7707396171643877 -0.7826522262330509 -0.820277377511091 -0.8662501146071221 -0.8922254461065346 -0.8909901922665193 -0.8825109114807551 -0.8880017402170742 -0.9010523812302376 -0.8883731587919246 -0.8240402030101822 -0.7250685162015105 -0.6476748974236521 -0.6398316776290597 -0.6951056618304233 -0.7570792961784256 -0.7712351161157359 -0.7312741912119423 -0.6763852859004074 -0.6489017600454248 -0.657126422546742 -0.6752494436281226
-0.6728651491009005 -0.6408695437169031 -0.5913416101594597 -0.5417052523003286 -0.5064014477056498 -0.49751194083785655 -0.5185345423969414 -0.5535601664564678 -0.5735298072170842 -0.5621661488350251 -0.5332060795826689 -0.5164516709449 -0.5264630850443195 -0.5485444746853638 -0.5582391510412232 -0.5516590294007487 -0.5482082696860728 -0.5600709005650587 -0.5686752825935263 -0.543304815157055 -0.4811294844001559 -0.4157251404829395 -0.3793889295572373 -0.3658233462979727 -0.34283089586789683 -0.2995176952949912 -0.26248961022650286 -0.25567913510608503 -0.2609965298011599 -0.24093819082142254 -0.19490543098803723 -0.16748880967742905 -0.19262051038526237 -0.2486272896278138 -0.28382430743904763 -0.2759503348479155 -0.24975882872872646 -0.2406943403179259 -0.25912648368442504 -0.2935342411771242 -0.3332834766894499 -0.37613634435959037 -0.41783735681338 -0.44549189613871376 -0.44774524207820815 -0.4331682861961176 -0.4346020933490342 -0.4838356003251402 -0.573415702856616 -0.6501299829066467 -0.6597742128470663 -0.601346714594381 -0.5307678841790502 -0.5094480756489324 -0.5526776426774959 -0.6263010011691726 -0.6850532277640834 -0.7097061898535978 -0.7124316524510746 -0.7146230531738126 -0.7232458294364447 -0.7284159172400354 -0.7222206981341157 -0.7130038754440094 -0.7102543215955802 -0.6965469904718375 -0.6343550332196211 -0.5143822347847227 -0.3842840338198969 -0.31305411731164573 -0.33281030727299094 -0.42343532949939167 -0.5381194942941271 -0.6264838351022372 -0.647986402745973 -0.5942495633644711 -0.5054122367300211 -0.44597535992378207 -0.4510347726557341 -0.49823902271908016 -0.5342775411807887 -0.524463421113455 -0.4773772565145461 -0.4297949428881964 -0.41176675347567016 -0.42188957921518067 -0.43277786214331954 -0.42175709221459157 -0.396086462730759 -0.384646867972387 -0.4049759002503908 -0.4452098194402597 -0.4830574143958579 -0.5156275819464817 -0.5576496762347527 -0.6083124859051438 -0.6351006511586338 -0.6068853745123779 -0.5406711141995251 -0.49619781264101104
-0.5109917481752193 -0.5503095254279562 -0.541454594773888 -0.4614665973479524 -0.3739265870009216 -0.364920486655209 -0.4483650319532224 -0.5495927478636431 -0.586569089599812 -0.5552453568826452 -0.5209206964843617 -0.5300655937143369 -0.5537231079525693 -0.5312578802408726 -0.4536074225645533 -0.3780662046488664 -0.36007382110047526 -0.39203476282850597 -0.42292488544665313 -0.4278251008163957 -0.4375432208851975 -0.4922326029976765 -0.5799680724273304 -0.6402964739982598 -0.6290349625466014 -0.5629844462452018 -0.49295964984212026 -0.44691795521339955 -0.4156888078180851 -0.38723065828855224 -0.37095481737518377 -0.3793590972174218 -0.40263542973398686 -0.41894475704289097 -0.42495700386755 -0.4400210218661084 -0.4768307688247359 -0.5204769564340053 -0.5457321393126264 -0.547516613663167 -0.5414005160873078 -0.536952100137874 -0.5276143597564863 -0.5127605638482959 -0.5134529128815939 -0.549089383508225 -0.602394927653394 -0.6244179781843732 -0.5804781662362842 -0.48517169439393765 -0.3925985105368662 -0.36005950071395276 -0.41393245661312306 -0.5270250980003618 -0.6213150381415161 -0.6163012236194201 -0.5003232682576813 -0.3528285208893729 -0.27765637966962553 -0.30538124258484445 -0.36791228332232495 -0.3748295146963201 -0.30794475887843265 -0.23168835651928926 -0.2153613061160065 -0.26119788440698727 -0.31565460210349067 -0.3378094737395895 -0.33707793541638187 -0.3431317842578953 -0.36130918960915676 -0.3762793782771321 -0.38941825618751896 -0.42723818981069506 -0.5054264066682691 -0.5987689308320886 -0.6583987391809022 -0.6574687057833287 -0.6156934129605897 -0.5773040634165864 -0.5647254975104684 -0.5592775628403657 -0.5336563713086928 -0.49473578491023024 -0.47626100837400914 -0.4899941412519729 -0.5062006246709818 -0.4928087963114574 -0.4574762334386666 -0.43626804560086463 -0.45276880984943635 -0.5071316590917031 -0.5960563335029795 -0.7126418710047342 -0.8187219228371275 -0.8482931586841153 -0.7662911768315828 -0.6137402212199408 -0.47162978117738047 -0.38407857646508026
-0.33716534417968974 -0.30914889370919696 -0.30931274034737505 -0.3491758994471864 -0.3992280152584107 -0.41056847833854876 -0.3801367861339886 -0.36271632439245266 -0.40346268215336645 -0.4804049952682707 -0.5349920691057237 -0.5470791898783373 -0.5534665694895246 -0.5907286021408743 -0.6432502115979268 -0.6626061802623685 -0.6268538511434973 -0.564419372385698 -0.5241973027991853 -0.5367063623548365 -0.5983834421749217 -0.6715504498711674 -0.6995076000139568 -0.6492519741803199 -0.5529971647047263 -0.4886139166122605 -0.5025705575098174 -0.5628251791939494 -0.5987787867902956 -0.5731704198280593 -0.49871843435909075 -0.4010873091960594 -0.2990967667879923 -0.2236781038125912 -0.2200660555657499 -0.30206317439453545 -0.4145270632106595 -0.4701589084121931 -0.4351467511522999 -0.36769835055900374 -0.35878174607810587 -0.43609972018415377 -0.5393445584657887 -0.5935394351882469 -0.5883890364974946 -0.5679274374469347 -0.5583806879005074 -0.5439533922054074 -0.5198991060781715 -0.5268618444124017 -0.5948197584058463 -0.6732253563253215 -0.6693354882731811 -0.5692180071397138 -0.47925862725628854 -0.5121873501939647 -0.6487826103732205 -0.7496517608566615 -0.706197957567733 -0.5506551448749799 -0.4064042389342567 -0.35725959447197103 -0.39095210632466504 -0.4519324244444341 -0.505010115813921 -0.5352786589915749 -0.5231176898248243 -0.457509866908495 -0.3679868875273461 -0.31114218018339573 -0.3133595005748726 -0.34326917030148063 -0.3547770024090432 -0.34827032605984976 -0.37112674760123243 -0.4541105408351861 -0.5615611893475264 -0.6193091408106696 -0.5912815120441217 -0.5161169005942271 -0.46227064454510797 -0.4570431012460878 -0.4717490078471078 -0.4715093278624696 -0.4614226941869759 -0.47506342189698786 -0.5275738317622052 -0.5938837377126559 -0.6349277132822573 -0.6377519791980139 -0.6237983927595393 -0.6175313184394162 -0.6127288048699685 -0.5786840323422303 -0.5009591562107129 -0.40512604465796204 -0.3332376026550059 -0.3050715515820196 -0.3101741227615485 -0.33073431986656115
-0.3622461181568457 -0.4121759313338446 -0.48274163028380385 -0.5563992910552972 -0.6013460868432808 -0.5968794765183426 -0.5543727378970744 -0.5096498418614109 -0.49337165952540885 -0.5093264163738102 -0.5373232070107501 -0.5509065365484604 -0.5347626921146332 -0.49547003189774574 -0.45859815076541166 -0.446460022840748 -0.4539010522238615 -0.45398307569740576 -0.43239601346998097 -0.40729318609728227 -0.408363499729844 -0.444238949245263 -0.4981989616392647 -0.5486585461732362 -0.5832487523761626 -0.5959948931799252 -0.5836168716273469 -0.5506901621028266 -0.5117091119365754 -0.47853963343173916 -0.44594059623964377 -0.3978233558840841 -0.3314525029605243 -0.2703281416767225 -0.24911750050144904 -0.2865737697662575 -0.370896168632387 -0.4661030614986994 -0.5335030345023927 -0.5548419557714444 -0.541843381619618 -0.5260487595060527 -0.5348804009414799 -0.5659427023565052 -0.5812637998048045 -0.5433917048965944 -0.4718127198842915 -0.44788703379186007 -0.5343046373051141 -0.6881934398099363 -0.782677171060287 -0.7313824434965286 -0.5758458590277457 -0.43328491419633314 -0.37385480523604586 -0.3757652600364051 -0.3909944602847544 -0.41129342717924267 -0.45021700416282584 -0.4948261306270369 -0.5156433428371813 -0.5146417258529047 -0.5244284110309188 -0.5537456865961947 -0.5658106884832925 -0.5286112801476879 -0.46745591318265256 -0.4438304818168546 -0.48226254900053206 -0.5334160409859864 -0.5205899745137458 -0.4220270321771189 -0.2996716040355119 -0.24351546929874793 -0.29162415397356334 -0.40322915465068226 -0.4978736870876272 -0.5158559618966042 -0.45544113280863596 -0.3690019832890736 -0.3225255407213697 -0.3465172807672652 -0.42068974078222954 -0.5076505487428269 -0.5957636177079186 -0.6977433321028824 -0.8087976774391586 -0.8848648827136726 -0.8764925649416151 -0.7794625934578604 -0.642962288263027 -0.5315931660009021 -0.48409377008873433 -0.49678631305565596 -0.5308683601652734 -0.540654415572722 -0.5109597679759179 -0.46671582226110725 -0.436880545683192 -0.4175913935130128
-0.3874949978226643 -0.35371826257628247 -0.359634963769105 -0.4366081888176267 -0.5561145749607141 -0.6411412432123703 -0.6326508602972825 -0.5463365458765551 -0.45619809975787157 -0.416713441963067 -0.411491503645342 -0.38973082106542284 -0.34106497117761175 -0.31162767160930993 -0.34692929807742745 -0.44084479117929426 -0.5473089451370475 -0.6228518197375646 -0.64577814248076 -0.6106144935379119 -0.5270949529280293 -0.4268881485363508 -0.35619954843127155 -0.347552797350681 -0.3944610713829294 -0.4578083374724058 -0.5016227192338045 -0.5201072310972558 -0.5260520525111658 -0.5215949659375064 -0.4957102825236525 -0.4495893877594493 -0.40620658879776744 -0.38564531442551736 -0.38381668643119576 -0.38957280468563094 -0.4136876514553008 -0.47646659016355647 -0.5609321599664769 -0.6043235847049198 -0.5614047418694106 -0.46884382744067604 -0.4227409558287855 -0.48450773513844925 -0.6169951954381963 -0.718842128868319 -0.7214342671854707 -0.651603968311977 -0.5982216335340289 -0.617464328429275 -0.6756237289365337 -0.6885177526050255 -0.6103947301821698 -0.47342287607749883 -0.3446758710745972 -0.26612188325088 -0.24497786336580613 -0.27690690070209334 -0.34783305467127595 -0.4184493111041675 -0.44068793042068755 -0.40952545156737363 -0.3865120905855137 -0.44576278723333784 -0.584540198868524 -0.7033950082739491 -0.7011089531822264 -0.5905139206959961 -0.4934472655562895 -0.5058695050632304 -0.5882167667428787 -0.6142534196087418 -0.5195281534735002 -0.37111922641482464 -0.28398548340710134 -0.2969799831722172 -0.35461922978355087 -0.3931495756993761 -0.4068985468658778 -0.42304950041373823 -0.4444121486610141 -0.44740115321526536 -0.4286471848427175 -0.4226898221412525 -0.4591459707767784 -0.5194062233495805 -0.5590685285614275 -0.569028159427937 -0.5866066855776249 -0.6358115315155746 -0.6817788507676432 -0.6696846925463629 -0.5975774668465991 -0.5209329403248126 -0.4820828600769012 -0.46493397962495436 -0.4386529240817161 -0.4220468809526776 -0.4660784129598525 -0.5723648116892247
-0.6659748492092838 -0.6705473435108031 -0.5928902189176497 -0.5109929681582783 -0.4851448252556865 -0.5043996221264501 -0.5258778632317552 -0.5417525445008675 -0.57989008656425 -0.6448532565024216 -0.6934227730146321 -0.6857818298971768 -0.6382874005772604 -0.5986289385695458 -0.5769826783490938 -0.5326365208054348 -0.43928827045884283 -0.3380623846540048 -0.29612763545286463 -0.32014292078410234 -0.3477128455184484 -0.3366834189383263 -0.3275666499867343 -0.3854382465524614 -0.49669028480306177 -0.5537124658756556 -0.43789163514303353 -0.11314022302893054 0.32486226726726747 0.671504342821864 0.7470630662080924 0.5755319176586684 0.3992726774319941 0.4441212621244114 0.6794269277059354 0.8741514521625917 0.8830202719135748 0.7955087601586879 0.7755634546529208 0.8376706085670226 0.861956683114602 0.7940032499642536 0.7294131114172597 0.7748970321918055 0.8958679061676312 0.9576240089370618 0.8899164213016789 0.7579713706107891 0.6728414691418622 0.6751073691805218 0.7211741805520475 0.7508516285650134 0.7402237703487803 0.7029122069374589 0.6694396680550385 0.6683839253003312 0.7082434282804593 0.7667891028432268 0.8024276693205508 0.7814783718437827 0.7006457723326194 0.5951767917955069 0.527294320942036 0.5458422325852574 0.6390917047050053 0.7377269826352743 0.7802525322439364 0.766038062787687 0.7302718008703075 0.6839175917252844 0.6078293201894379 0.501323964607247 0.4012423202694048 0.3394197285397282 0.3087062885077939 0.29377093563111584 0.313881109769205 0.398995321933532 0.5269460321334907 0.6221621262733963 0.6345899248763723 0.5994192298742212 0.5969110555413942 0.6580288474778665 0.7275044919211472 0.7274423240817717 0.648121700348772 0.5614283070732276 0.5436554886022823 0.6000195938540882 0.6728925041799672 0.7089029305647148 0.6985658030532171 0.6555008721626283 0.5853599901036642 0.4955129364143557 0.4239575492485194 0.42720088890420704 0.5215426403965056 0.6495051566229323
0.7286288870338592 0.7349764788695076 0.7178417157828897 0.7270525560284865 0.751601616293795 0.7491816820100125 0.71580142522654 0.6924569824860665 0.7025196538462544 0.7126049121722811 0.6728295964479316 0.5819399631807879 0.4933407093443031 0.45848798415991376 0.4790685409301606 0.5183168673147412 0.5465484235833222 0.5651752172006025 0.5917674236660614 0.633325397950123 0.6754331626344825 0.6918728332952181 0.6670886984795682 0.6151633001192859 0.5694382105891205 0.5414533234282451 0.5000267885913406 0.4146737441895017 0.3179905386354405 0.29443825145577346 0.3906074274755089 0.5527189492136889 0.6702004365021189 0.6747968077785111 0.5873501572446242 0.47989645899250083 0.41247787526060664 0.40360121512700625 0.43562206948012855 0.47160303926830005 0.47696446675962967 0.44419599948760025 0.4014943051416921 0.3887502840885209 0.4198875967206755 0.4717240999595144 0.5092821140127182 0.5137901154603458 0.4851152346541896 0.43302569286518805 0.3801323518326378 0.36243002102369454 0.40297190056873117 0.4796880392747496 0.5358965481088243 0.5342156123032717 0.49308790408499015 0.46207654140012927 0.468968062523139 0.5035203446128149 0.5480036791795847 0.6031187989656405 0.6743249618040867 0.7468006949655156 0.7914001740944131 0.7939903017409646 0.7669878482884099 0.7307824229710099 0.6929849756858408 0.6485802649605382 0.5933561884185171 0.5325621124390111 0.4788015446940565 0.44421150098534695 0.434452035563737 0.4482452884302394 0.47913521809193194 0.5157440122276657 0.5442933908086758 0.5563429920510274 0.5540553912863504 0.5456525212688423 0.5367032486836795 0.5264888998308733 0.5103881193558357 0.4856867084146403 0.4586716530731696 0.44553916846139874 0.4598485403792519 0.49676441700449797 0.5359153779995374 0.5624782852230032 0.5766400140745552 0.5773583226057376 0.5506962241723853 0.4903041728039267 0.4225255158087533 0.39041613663481745 0.4077414511503751 0.4422874338763398
0.4529044413885527 0.4350713858790935 0.4207098059624474 0.4373475066328376 0.47895901174348027 0.519100779525633 0.5419000255818134 0.5511035033553591 0.5540551661837146 0.5487705659193834 0.5288856757183736 0.493306583251953 0.4469864978392842 0.3969646505247127 0.3517922543128665 0.3226742992299604 0.32114106112813545 0.35381066324315236 0.4181603914886277 0.5007895922468488 0.578670033133854 0.6261625124816419 0.6277207900507512 0.587287991182641 0.5245884667808309 0.4614750899772871 0.4115655698959897 0.38004441875281003 0.36823852413752717 0.3755893645496093 0.39896433873647064 0.43370027263725947 0.47653516493172116 0.5250577642580062 0.5728481204125628 0.6093344841128682 0.6287975613383588 0.6354121586715986 0.6322836711010943 0.6090360663367831 0.5520103543471601 0.46985976557436027 0.399245644487383 0.3760622342536282 0.4017186757407643 0.4433499604392064 0.46938260187681746 0.48018144400335616 0.49625491169787983 0.5184057335599107 0.516233833387582 0.4686438617185432 0.4040451095208732 0.37845845842728587 0.41251166673088085 0.46801357490736717 0.4934093321889786 0.4789894242526792 0.4580145096849247 0.4622277850878811 0.4877288904208739 0.5045057940462953 0.4932388091846584 0.4679536101847239 0.45977645236268233 0.47994517413074556 0.5051437222152158 0.5026497976034163 0.46601107252195867 0.42199076367746097 0.4045149248404148 0.42548702383499404 0.4699531684040962 0.5144519418486051 0.5463967594403254 0.567672455971314 0.5850309629626931 0.599967754867218 0.6065744381587745 0.5989402447581958 0.582876694092679 0.5771672198163782 0.5931307365886098 0.6112826885955228 0.5934489741105693 0.5300771952740655 0.4639905494178986 0.44765347103779474 0.4785546548867505 0.49586209581777485 0.4479845616392289 0.35066588442115304 0.2682149505235894 0.24492110124344638 0.2639725371798209 0.2609373163741331 0.1564399022095514 -0.1066302907533576 -0.5007126792503657 -0.8721430388210796
-1.0285242265078107 -0.9251512055703505 -0.7307085050561145 -0.653502163896687 -0.7245240536829063 -0.8026025343613511 -0.773767001089176 -0.6798480354592981 -0.6390172409339226 -0.6952599896123954 -0.786395889149817 -0.836374793016348 -0.8343707074475885 -0.8183576739790703 -0.8138519561722294 -0.8116516307014962 -0.7947001926141036 -0.7645269408082228 -0.7368174498311287 -0.7227901282460502 -0.722194444050606 -0.7289369376168755 -0.7356787961674794 -0.734380433684339 -0.72111927678379 -0.7046243020311481 -0.7038396314891711 -0.7291551167585524 -0.7674863248503102 -0.792923312470925 -0.7936587349476802 -0.7844127283440656 -0.7897715660385385 -0.8161360895631541 -0.8445314738735444 -0.8567927514719315 -0.8644557754356171 -0.8962305880259894 -0.954477937574432 -1.0047378166274654 -1.019389707967729 -1.011850878169252 -1.0098073678960924 -1.0094678484469144 -0.97878693904146 -0.9023188857552339 -0.8056463845778584 -0.7326127935593901 -0.7064762783608176 -0.7146956140827241 -0.7271075702265604 -0.7270765133044023 -0.7243393853680916 -0.7369363226378176 -0.7656980324411896 -0.7948061444930142 -0.8165598083210657 -0.8434963239447807 -0.8880064962362598 -0.937226768012783 -0.9612650767686172 -0.9483113279699422 -0.9215250152700116 -0.9143025797770677 -0.9332620245395941 -0.9508973889341347 -0.9317385098380577 -0.8638774886797592 -0.772609598204974 -0.7080309967230132 -0.7092702767074245 -0.7691885763437531 -0.8373487673856186 -0.868399286689579 -0.8694645568923934 -0.8914215622418076 -0.9652781084213697 -1.0500532601430814 -1.0588596829722212 -0.9495905534644353 -0.7837814154945948 -0.6787952452696538 -0.699224644985012 -0.8078169043434481 -0.9209064043087816 -0.9865057166974301 -0.9971306812788766 -0.9568495289037899 -0.8732871601491019 -0.7789184666940642 -0.728928007628103 -0.7622265875576204 -0.867915477977908 -0.9890838648062079 -1.0570754726415958 -1.0346939330495042 -0.9432272346966007 -0.8487113924845817 -0.8111186072248493 -0.8388362797187568
-0.8883485453591068 -0.9050273827997116 -0.8677187603216464 -0.8041324739596457 -0.7676839479208848 -0.791611170141207 -0.8558510998607932 -0.8992478681531032 -0.873566143922537 -0.7916366294994326 -0.7167757655712654 -0.6962420128018773 -0.7114039173104145 -0.7093330984935396 -0.6795323869654575 -0.6722189310458151 -0.7282572009011711 -0.813019931006915 -0.8448508304508024 -0.7868947159014189 -0.6936508194356675 -0.658685695481997 -0.7193902604321738 -0.8199573035880898 -0.8730996987769846 -0.8526811787231227 -0.8113302517895071 -0.8055158609073679 -0.8245487604153373 -0.8126463304717628 -0.7520076770788717 -0.6959334988346362 -0.7059692982049919 -0.7747531865149982 -0.8383043471667061 -0.8589532976909975 -0.8597651619566469 -0.8654523294808504 -0.8486486407895525 -0.7723738044765802 -0.6675474173709752 -0.6208227504706899 -0.6727708115418514 -0.7605070319524733 -0.7890412966693641 -0.7453348444108153 -0.7091936324637002 -0.7493870826189123 -0.8415309190319167 -0.9081767942902732 -0.9168635133321361 -0.9038968708508718 -0.9029204963658739 -0.888103544168525 -0.8178767281674416 -0.7228268991192833 -0.7084028016990004 -0.8417917559702333 -1.0503448601572767 -1.1711698497359604 -1.1164804734228355 -0.9656145429921419 -0.8715373321937677 -0.8933566917256984 -0.9527572907182283 -0.9542160359995673 -0.9105859625152565 -0.9188754810021766 -1.021614850314326 -1.1315929239049036 -1.1197583603823296 -0.9626292403823721 -0.7689163335952072 -0.6545558269840495 -0.6240281387586262 -0.6027648640835962 -0.5666366630256606 -0.5871878177800973 -0.7255768341309085 -0.9183756189413671 -1.0193187638653158 -0.9553136780223728 -0.8030450657764358 -0.7001043494382743 -0.7091065641736323 -0.7822610871049055 -0.8334574348928505 -0.8230355170667595 -0.7816776956703126 -0.7679701542043501 -0.8051058495122053 -0.8574535261553161 -0.8692245238359252 -0.8222351223316601 -0.7534068524363349 -0.7212852923604937 -0.7573363520869587 -0.8406934102545919 -0.9153350171487197 -0.9392831117272944
-0.9203013076369602 -0.89610891368875 -0.881233825156409 -0.8496260061301932 -0.7758281058243702 -0.6784123410053574 -0.6120053972401559 -0.6260426094591877 -0.7363840093996205 -0.91636214424498 -1.0961635732734218 -1.1883646188404633 -1.1483411717033638 -1.0155758620803434 -0.8763139980097353 -0.7805713942633181 -0.710487183784699 -0.6318750801079871 -0.555568961599911 -0.5322526231281269 -0.5945370463912014 -0.7183178056067563 -0.8419491926394107 -0.9139667262138461 -0.918581253372648 -0.8673643915713269 -0.7869849795194486 -0.7195919067509707 -0.7115208907875709 -0.7747017317124872 -0.8624623716757998 -0.9090915612162922 -0.9013825799230046 -0.8916873909290789 -0.9293596081478586 -0.9978541831716967 -1.0377862434018876 -1.0194995317444224 -0.9685556716110999 -0.9217623967245838 -0.885327455343245 -0.8503017959355235 -0.829400886989735 -0.8504130123585849 -0.9116515766365858 -0.9666635560131808 -0.9699703019770541 -0.9323637072829887 -0.9128398279233464 -0.9471728807542291 -0.9981183415957319 -0.9970611630339188 -0.9318415283473424 -0.8657655816637346 -0.8570414836435426 -0.8834471469536062 -0.874024888518396 -0.806054744868363 -0.73855910643923 -0.7396118283201453 -0.802037404206558 -0.8512565269267196 -0.831809766167304 -0.7697838698463676 -0.7428717572469714 -0.7932770574564403 -0.8786166264852258 -0.9161440915610638 -0.873993890486411 -0.8051427809150583 -0.7830273731830664 -0.8199832231525607 -0.8709880659026372 -0.9061325300208919 -0.9423821461212653 -0.9948552491717221 -1.030775353219279 -0.9999379498313153 -0.8998437184105016 -0.789203652820866 -0.7380341429646436 -0.7732133274480145 -0.8644165278161122 -0.9489570347727005 -0.9748884986606416 -0.9370662580330547 -0.87747784888619 -0.8441441043960443 -0.8461516314539886 -0.8507345785140354 -0.8228266195573957 -0.7619505947667892 -0.699553650530092 -0.667740130131303 -0.6782267857938383 -0.7282450982500265 -0.8124295646625256 -0.9179949939199634 -1.0145337462651816 -1.0672596430221213
-1.0705766438150859 -1.0576100472061118 -1.059030504312269 -1.0543183171184844 -0.9859130742329237 -0.8358345480795333 -0.6747631132015011 -0.6090511118546539 -0.6709092629450477 -0.7774660495877533 -0.8139457442727898 -0.7508662485413665 -0.6651128270459653 -0.6497864572148471 -0.7216291562767903 -0.8210282569777358 -0.8831294639272256 -0.8901931136033939 -0.8615205542761644 -0.816490089595082 -0.7605205311753047 -0.6991561961390604 -0.6504241729756197 -0.6335112142671422 -0.644571488045692 -0.6525880751063268 -0.6313906619817921 -0.5972085319099816 -0.6014554171152434 -0.6752103511622215 -0.7858603353992468 -0.8615578739776096 -0.8630332944797381 -0.8251802312801083 -0.820590424555634 -0.8814340659704476 -0.9640933276894452 -0.9981331971966145 -0.9666465801610794 -0.9238632569991083 -0.9270665326622063 -0.9661734978617469 -0.9789568361099944 -0.9301183750834253 -0.8518801394134472 -0.7991765610597727 -0.7857674523966331 -0.786110275227153 -0.7913378987854092 -0.8305465477335794 -0.9191000275045967 -1.0072974803387578 -1.0156897520611974 -0.9269741736528293 -0.8159431967663405 -0.7694565146495812 -0.7906769990516146 -0.8052613104592657 -0.7589253018412397 -0.6829060813851677 -0.6501446666599394 -0.6859852177507761 -0.7486847666313124 -0.7954246911710905 -0.8369285756388348 -0.906807334266719 -0.9933194453005195 -1.0357347719616425 -1.0002673229625307 -0.9350603672820613 -0.9202324225875613 -0.9687129862624788 -1.0083979792415807 -0.9719936757182494 -0.8770814325612488 -0.797327254641073 -0.7744958239337955 -0.7880779378946194 -0.8055890391904499 -0.8289930897437174 -0.8745989814309164 -0.9261975879258331 -0.9374117060157441 -0.8872967148505125 -0.8156156721023248 -0.7849740332399189 -0.8105316463225648 -0.8444794519337309 -0.838889653324329 -0.810598551895459 -0.8212212074628741 -0.8898482268238348 -0.9516034794747391 -0.927051018538414 -0.8214330687649112 -0.7251448845123184 -0.7131584619009336 -0.7703160455905592 -0.8263884874776376 -0.8411715502859881
-0.8318542785897088 -0.8255485013291484 -0.8155749805460331 -0.7841835940342272 -0.7547811090741116 -0.7851185352110124 -0.8900915219539651 -0.9959668090174709 -1.0084175213266493 -0.9260944276473451 -0.8521826111025375 -0.8743955969345694 -0.9555249846406298 -0.974169833628483 -0.8724632008520877 -0.7316957855763907 -0.6813196714500888 -0.7521634246143402 -0.853676363112429 -0.8950795072625161 -0.8872923093725003 -0.9001915069280734 -0.9507831650740691 -0.9805005267172676 -0.9434510999573612 -0.8778619361133898 -0.8652125484327267 -0.9308649163939395 -1.0111733070697615 -1.0273211672934242 -0.9746204627120939 -0.9188193516182054 -0.908387813858718 -0.9142930002936273 -0.870835030955793 -0.7678374432226934 -0.6833065789486691 -0.7100920617794175 -0.8512659066349524 -1.0055989689496012 -1.0673682653773013 -1.0248927961220222 -0.9444479036441106 -0.8776808113947673 -0.8199203318014316 -0.7555867806471466 -0.7068980205703953 -0.7201533511305173 -0.8172691152867296 -0.9671106393218083 -1.095540948781885 -1.1297897645654436 -1.0555314192495417 -0.9355921347990181 -0.8559542801259102 -0.8469675121740502 -0.8688822827055946 -0.8744007116253975 -0.8633613259819752 -0.863514372966704 -0.8781203724266791 -0.8811343263875436 -0.8605357635326213 -0.8364205461019092 -0.8260393502917944 -0.815367359455733 -0.7843492299286303 -0.746878188836267 -0.7459624171241083 -0.8087015471233223 -0.9115118976540065 -0.9896811609978361 -0.9874792657076324 -0.9112789557314434 -0.8318118067740827 -0.8183261971358746 -0.8654091185674476 -0.8978171071048268 -0.8552134679931406 -0.7601819078637386 -0.6908110966509741 -0.695264640324237 -0.7505828484592443 -0.8048179194277243 -0.8403161368693829 -0.8811747779825001 -0.944201493053299 -1.0007950354088333 -1.0017958643067115 -0.9397613581833266 -0.8709093739255818 -0.8596251363233316 -0.9051111854490039 -0.9414668059167012 -0.9159490231852888 -0.8511448494003548 -0.8169681759198929 -0.8506720434728833 -0.9200774433423999 -0.9635855601934809
-0.9518119768834994 -0.9053660247262205 -0.8631540793905732 -0.8445016430454306 -0.840721083935639 -0.8322861945089998 -0.8067062629425589 -0.7654807505829447 -0.7251755059776052 -0.7115569604446758 -0.7392018518358825 -0.7894502766427158 -0.817600626132533 -0.7930359166890644 -0.731713965764472 -0.6837999089086175 -0.6887331702409585 -0.743060590409944 -0.8093976091447125 -0.8532967793051423 -0.8710555173101335 -0.8847094710595123 -0.9138520745753375 -0.9537549709687646 -0.9797610604265223 -0.9716795133106648 -0.9327409063966745 -0.8837438426644839 -0.8417918878230777 -0.812023667069042 -0.7999024425113452 -0.8170138797222783 -0.862398909293018 -0.9066568514684226 -0.912880019790014 -0.8770023566627898 -0.8358012784720019 -0.8280734322747221 -0.8539652152419897 -0.8794731646759553 -0.8772400102524432 -0.8542189568081684 -0.8389317078631324 -0.8501621832088887 -0.8823592910695384 -0.9154925663011082 -0.9332112183963356 -0.9340572257350395 -0.9288501952588242 -0.9258405500348993 -0.9195241885083442 -0.900599547599528 -0.8765900923308209 -0.8708662642057515 -0.8943750413284208 -0.9268767922113038 -0.9361402392294141 -0.9126322304613244 -0.8780909448340347 -0.8623640039578606 -0.8768797983242078 -0.9058625902107689 -0.9163677139940601 -0.8826183100996902 -0.8125894744542733 -0.7501440905279111 -0.7381219675867282 -0.7735265840867107 -0.8068932641933623 -0.7908316433653557 -0.7219084562239466 -0.6318884977006018 -0.5539825822249143 -0.5129927808374196 -0.5335797734839157 -0.6261600289354042 -0.7589503848969639 -0.8700408694256903 -0.92485621820229 -0.9515885644082933 -1.0059622091741927 -1.101213857803307 -1.1703875254954148 -1.0751030570256555 -0.6411829528579325 0.244748419127347 1.4496367621963284 2.496432212610704 2.8353072617216997 2.3733189002772828 1.6636199229885966 1.4081866023742766 1.7739599060724318 2.3070818367366117 2.504455469532283 2.331134296308787 2.132620626730484 2.1678940237148763 2.357808231453222 2.459421663739971
2.3574185034101394 2.1371277949671375 1.95043063883591 1.8847803435932255 1.934963444474629 2.0317347962334065 2.0868121852383763 2.05243329020907 1.9584343229526462 1.8766451132691382 1.8458096175612615 1.8491185036984363 1.8601397606834873 1.8757094868975452 1.894192111704271 1.8975692484175761 1.8777571548040874 1.8540614502028183 1.840040076935721 1.8147644167086459 1.7553580196683478 1.6857451383228428 1.6635817393790422 1.715419826471632 1.800823653633124 1.846466372126546 1.8109630268098476 1.7181434882724982 1.634946064833026 1.6169197928403505 1.6650997469829782 1.7284258624714763 1.7515118667729759 1.7270160785967739 1.7015536413150807 1.7257104958845515 1.798034459863772 1.862730084807732 1.8643534250010305 1.8022915660283392 1.7287834467903553 1.6944522932077117 1.7033116154332197 1.7275419867832287 1.7537486219243774 1.7887337711947775 1.8188185400929053 1.8010397065064434 1.7242560336314778 1.6573655930839541 1.6921349942167292 1.8305797479194166 1.9632710024974394 1.9834550150463885 1.9072827074528589 1.8537324049555488 1.903760593133158 2.0021029866339672 2.0154846077375757 1.8805148225417254 1.6752609189658114 1.540066261753777 1.5422785192395392 1.6323840224579067 1.7240884209954295 1.788343379833329 1.8509148216091837 1.9209269926131538 1.9658644369729095 1.9631236873470395 1.934281625034891 1.9024819713409173 1.845836508148182 1.7303140058131594 1.5793063458764744 1.4775881485764037 1.4971437276708555 1.6288821606203459 1.7893563778959531 1.8917110348065314 1.9147939688775082 1.9081232633757625 1.9298518422870763 1.9845812740072333 2.0291394607912463 2.0347291994849996 2.027619081094233 2.0584960861729753 2.1361706971564014 2.206334403484097 2.2089660590158995 2.1523580141841157 2.1090106454005944 2.128506610776253 2.1745732639122766 2.1709530132302683 2.098979050137836 2.020083540291377 1.9973964174966041 2.021447427492744
2.0295959025450943 1.9829594765658258 1.9035544692484154 1.8400275317364465 1.8167945635606289 1.8247668772705736 1.850022984028213 1.894856243554431 1.9652935909400808 2.045256840772482 2.0936249923631642 2.072987029847818 1.9816573155908102 1.8543917396856389 1.7314121892988454 1.6329708329138393 1.5673745363644636 1.5505936998190288 1.5968717093963765 1.6859869920634791 1.7563487806495752 1.7455642531529323 1.641520282751465 1.4969432227354713 1.397052654692624 1.4012682791769677 1.495311892688634 1.5958457371361439 1.6191663011006132 1.5595994620548503 1.4975883791404914 1.5221376711507277 1.6418192795260869 1.7720552871952546 1.8124872017553215 1.7426624316954018 1.6446557673105135 1.6280496761745311 1.7293038660785 1.88412723414346 1.991678258890879 1.9944544018427972 1.900913536018612 1.7600968084735784 1.637173346318395 1.5952155053956716 1.6577938670379715 1.7744485592928982 1.849782043844666 1.8312882844375367 1.7604934756156665 1.7235124738186702 1.760266126993051 1.8346515689933063 1.8831106221018616 1.875018952339718 1.8284186107731486 1.7826428627026696 1.7629621894944603 1.768779941710292 1.7896726069872244 1.822135766569028 1.8612669938872048 1.8848755084134368 1.8700392635434187 1.8324319421765443 1.8241450326578714 1.8698515267427578 1.9199058888629188 1.8974581893284383 1.7938799809348074 1.6915619226788652 1.677752014522857 1.747945193606787 1.8103744095711103 1.7862205789839112 1.6962619811534094 1.6432209645802276 1.7086210508242012 1.868251498420339 2.010521294746286 2.0386570940988764 1.9542119096194515 1.8421040196208207 1.780724524066522 1.7724209831606503 1.758983419623842 1.6956257282016631 1.6026214741015887 1.5455737809914671 1.5713845060182454 1.665396677378676 1.7651835206896918 1.8123143705761675 1.796852779202207 1.7589077887463134 1.7458317360086475 1.7654427977089473 1.7845641871420208 1.7734923094764334
1.7424554315433645 1.7296030551109343 1.7630797516942864 1.8419653687372153 1.9397403174793966 2.0075042411252446 1.9859926171185949 1.853410487098579 1.6780720210285693 1.5928562298043758 1.6775791593283487 1.8653977141442535 1.995561071411358 1.9754637501486618 1.8758334911278693 1.8465855015646115 1.94671188111177 2.0834048383772847 2.1237403965777473 2.040388191117074 1.9307744307315395 1.911221667487377 2.0121331169584 2.1630934914771545 2.254989016772133 2.2184679589503413 2.0661959974688586 1.8760934322684015 1.7334642967960505 1.6779065910213615 1.6905155347655527 1.7230638432597112 1.7425193163043933 1.7521685676663257 1.768164608991374 1.781086098424212 1.760456332723112 1.706400818747994 1.6741688638464074 1.718662672734258 1.8199693228269809 1.8958197245078394 1.8985622190783955 1.8713430978607861 1.8840437691803507 1.936406709656826 1.9641092976074022 1.9323176709571064 1.874225830874725 1.8251391220075404 1.7673775746111196 1.6750701038952267 1.5794381450416253 1.541741691659348 1.5719405148817698 1.6180715913872583 1.6413018092535503 1.663905937227228 1.7221266159740347 1.7964837860666403 1.8249677825340644 1.7872746729395974 1.7428954201199127 1.760705179953156 1.8268054963090234 1.8563179536663317 1.8005617706491712 1.7126422295733597 1.6867843626240615 1.7471968218786624 1.8208784422739699 1.8217444925919735 1.7443711690900408 1.6650734218044334 1.659472878495286 1.7320383604106127 1.8265252402794299 1.8923480730741309 1.929251972058593 1.9708161944567348 2.039736160795024 2.1256921190632156 2.1936751860068435 2.201630820187513 2.122640386780185 1.9736037296032156 1.8227123840979869 1.744975875940586 1.756298401798853 1.8025120375808608 1.8241576450446837 1.8195766047678774 1.8285215782247068 1.8662596104725073 1.9017093519628112 1.902666896844987 1.8771040458100403 1.8574639745559784 1.8617200626228971 1.8864812199207994
1.9280627648398616 1.9889864873446366 2.0602126009676196 2.113106262085847 2.1232067796676746 2.098642993852198 2.070314718683071 2.0473609409338542 1.9946160306864107 1.8726070075325671 1.7011388030448509 1.5636511352791318 1.5326887381295309 1.5989854718293557 1.6900750938174185 1.753555315061241 1.8012020085840765 1.8683966524608955 1.952308468943366 2.0074390334359515 1.9972460797047782 1.937007212767984 1.8788289424247573 1.8561096298079518 1.8541624075210361 1.845546995922813 1.8404903029972874 1.8731648513017642 1.9368718812273418 1.9690506466830664 1.924449826984607 1.8414703721270456 1.8041540649871304 1.8428924982216544 1.9022222282125638 1.9165574404765324 1.8951021394593466 1.9074920874157357 1.988734578309883 2.0829101583731293 2.0979522490216502 2.0093544417381755 1.8898575255843801 1.8286157199247293 1.8371204594997312 1.8551345214100388 1.8423705018064915 1.833089005819031 1.88342681622498 1.9834628939657357 2.050299062418858 2.0120030180242683 1.8797363900860578 1.7301311827540427 1.6347514101442255 1.6191372973066431 1.6705674663894172 1.7569931800605136 1.8401234817230205 1.8938852948484048 1.9186264979346328 1.9275938464814024 1.9193550696933386 1.8777590037114045 1.8051624852778696 1.7431318715449957 1.7427121652601893 1.808609726595403 1.8829196618894242 1.8984635136831993 1.8500586372864125 1.8004007793954562 1.808127065310106 1.8619117024937413 1.899437415619753 1.8835055813254589 1.8399742356036635 1.8201303959944266 1.8460180043566972 1.9035252819803496 1.9736851106533457 2.0488783889393463 2.1167844822817625 2.146916608949459 2.108533717788942 2.000198286715047 1.8544595788275513 1.716658526499548 1.6243939006180492 1.597586650197219 1.6319134223656544 1.700700422010821 1.773499642709948 1.8352206289688275 1.8833300643071942 1.9108857561362989 1.9024445183027314 1.849019176643916 1.7628077045557293 1.6775564804817296
1.6371996290642885 1.6749675002279996 1.7846296660879157 1.9064594175444949 1.9575585479068027 1.8945799704736863 1.752335570065393 1.6185427601442426 1.5660948736048919 1.6012052975512547 1.6674831439034372 1.6981057418265675 1.6725044298824814 1.6320915904618813 1.6402157279963618 1.7189820971231586 1.8237790658620605 1.8858691384583819 1.8809818130957845 1.8497391789056365 1.851566569415105 1.909565076318756 2.0008835661853626 2.0822425538502447 2.115505862289679 2.0893176748993834 2.0367854938152745 2.018121170095425 2.0604433896900365 2.1196462730256034 2.1237208449587763 2.0511846474341016 1.9462892233392617 1.8596674231233385 1.8005278692621776 1.7556275411779976 1.7304357091419331 1.746663114234966 1.80346665079064 1.8639143980642063 1.8929915596087756 1.9009284889128453 1.9316370472657047 2.0030380754750707 2.0735583583132793 2.0856421070815396 2.0413007506779355 2.015392162457189 2.0791360939744994 2.2137099882542395 2.3119696662649556 2.272706308091578 2.094443727647796 1.879044862694829 1.7459164626658121 1.7380709714039697 1.801564055206058 1.8500834515765474 1.8497250524120228 1.841879490052785 1.886564868869828 1.9943312549803323 2.122336717585022 2.225722218737077 2.290132291988194 2.3129512730681934 2.2814453787432214 2.1925496693363624 2.082253852447382 2.007157304091981 1.9898954170408323 1.999644516333432 1.9968764758206776 1.984850523515023 2.000051368300678 2.053851717457486 2.101471344781586 2.08178084587633 1.9856083085439 1.873521887317674 1.8195727615565545 1.8431505640863597 1.9040281661595921 1.9564647609333736 1.9900411347998663 2.0173204779424654 2.0452100574452934 2.074321906011726 2.112095170094261 2.162697434741805 2.203343223641061 2.1929041704614733 2.1201459092814186 2.0350154753712797 2.011951524195891 2.0750065310596075 2.1695669515195823 2.2157697063865975 2.181652965705176 2.0970569357518802
2.0107442732922745 1.9525633693688234 1.926992618676226 1.9164263915086703 1.8906766111644682 1.8391568053519038 1.7987589433928957 1.8256805597046641 1.9301268953942496 2.057503258129589 2.142688551910044 2.1677623280790153 2.161136955489765 2.1581631107583155 2.1745048986017763 2.2062181245949954 2.239280401709279 2.2565729795204845 2.243280388219014 2.1936581063050795 2.1185945371521564 2.0476162143420478 2.0140543747111237 2.024954787846222 2.0479905029930223 2.0463775548325063 2.03072908361109 2.0539076996696837 2.1395667099771694 2.2333121730221173 2.246930272538404 2.146521710712771 1.9824059079060616 1.8377293302040927 1.7651238139418746 1.77269637520975 1.8472912870724643 1.967976897953984 2.095840011589649 2.1692770183328647 2.132488691394059 1.9857404338703453 1.8101148683342088 1.7227792115591125 1.7782806266798858 1.9079461077588378 1.980734435437527 1.9407166460526493 1.8697889233608165 1.8945185558298097 2.036753110331011 2.177872974260553 2.1783550628092216 2.0198404470234506 1.8174923643031615 1.701117746568438 1.7037561577797302 1.7677037390163364 1.830399704144305 1.874655511859871 1.902978987188843 1.902122144715287 1.8552305890094 1.770852628291205 1.6751695436349439 1.5810969539366886 1.4873143659902615 1.4091283689507452 1.386699996424025 1.445600990113034 1.557244844778631 1.6545527113060285 1.688608916658897 1.6622762843954308 1.6105749084676513 1.5617652316457165 1.5240012877580722 1.4997773885506938 1.500119222110856 1.542844150178705 1.6389913287517306 1.774011754399913 1.8971678775522776 1.9426398127983242 1.8789610504305285 1.7373528053351357 1.583785899014199 1.4705425019765062 1.4228008320339982 1.453024343241018 1.5573241496137968 1.6954832704809568 1.8022588578184726 1.8367692274945058 1.8110342683330671 1.7582512341447993 1.6865774692967153 1.587148574953148 1.4831529167605764 1.4380429183106909
1.494373132774324 1.6190912526131833 1.7316038850541278 1.7815388097430922 1.7786959132731766 1.7471457725605404 1.6793973153421178 1.5613948428283537 1.4309812361624135 1.372950556245403 1.4376070822400313 1.5847049088387863 1.726948287488594 1.8121094535115883 1.842079977789481 1.8297424352538412 1.771471532697691 1.6654772348427809 1.5363179048008233 1.4308743794386936 1.3898943023526174 1.4160875361893284 1.4664732441027093 1.4898828576403047 1.4805871548147855 1.4780791702326994 1.5032049378481536 1.5228721856462368 1.5086783762810287 1.5072936984334508 1.597898694313159 1.7699813015456252 1.8945031429288275 1.8575502427911474 1.700216049208024 1.5820210553024825 1.6100421030388443 1.7436016027125176 1.8705946149147987 1.9333889542426976 1.9543178919562252 1.9681742505774333 1.9726173071177424 1.9473957655288 1.8929650106374991 1.8330767844817062 1.789297718685582 1.765136467807398 1.7501277408647853 1.7289649420101492 1.6882891263689743 1.6246590112662944 1.5503233614122218 1.4876749439532233 1.454066438095398 1.4499124030356665 1.4598086455953498 1.467109625732834 1.4728171117873958 1.4996933779120738 1.5703014060043556 1.6786514027188073 1.7875913023946612 1.8535269564839902 1.8524019457599046 1.7923510167602459 1.713625919309669 1.669430318283427 1.6880526528573327 1.7474136878532005 1.792869697208087 1.7810782431494636 1.7046307058696333 1.5851723213582123 1.4612051977531144 1.382618264612471 1.3918110412217244 1.487010458288052 1.608892778779735 1.6853178715602972 1.6985983282441899 1.6984086878190574 1.7408292696705094 1.8257058828683288 1.9065419113437998 1.9498626865419888 1.9584360552077142 1.9352258051540228 1.8574604969709119 1.7121963631776405 1.5457565459039542 1.4487758664493289 1.4795877895497247 1.6085196829309618 1.7435757142669173 1.8084250636736092 1.7938423778880115 1.7417220698109266 1.6935297084170544 1.6611452054423832
1.6379288712496856 1.6188917437394665 1.6021677389349405 1.5842774887215334 1.5712503337921755 1.590921005372073 1.6717419612891693 1.7951845119595407 1.8826738723935104 1.8575060771622003 1.7294998337639504 1.6018220441372777 1.5795455544099355 1.6779296791619225 1.825181832580962 1.9361731231742045 1.9679437068274692 1.9255163100009942 1.8496543951884452 1.7969320762669543 1.796605758145965 1.8153400149472858 1.790743360523291 1.7133577769487758 1.6504634985195221 1.6683865264537052 1.749394308982479 1.8103989176775979 1.7979641874598151 1.7414807818019047 1.7047469822849037 1.702641887306133 1.6914614417348657 1.6442417265583462 1.6032681972049658 1.629151430186875 1.7161372449261802 1.7979759096388173 1.835582228710698 1.8546549813873388 1.880752375462844 1.8806015253859123 1.8090683889149042 1.6933880226103553 1.621182940603643 1.6389277435448266 1.6992753028277905 1.723739208853943 1.688464918534762 1.6285555403145635 1.5839290996657296 1.5709984107781259 1.592569363850188 1.6400718600964732 1.6851924807876915 1.6994405767381056 1.6929434321243466 1.7111265766660262 1.7748911264977243 1.8396267269760445 1.8393264729098464 1.7673509479520553 1.6848443454082576 1.641323395314752 1.6159813776543404 1.5618667287957921 1.4890089215963402 1.464181900753563 1.5206872804997982 1.6008685292753728 1.6159244486755548 1.5516082559635251 1.4850655828347328 1.4930025330877525 1.570200576622776 1.6554541425682694 1.7156774683087697 1.769752048934416 1.8283790828952577 1.8476462841252868 1.7758092619662955 1.6395195924668966 1.5476263698730175 1.58605896631544 1.7193234922867031 1.8189879504160174 1.7938907020763377 1.676832289430216 1.5753388412343023 1.5542618406487299 1.5870649391205909 1.6130146348753043 1.6099306040477463 1.5976691909002414 1.5942652920277938 1.59845043899518 1.6136285038718143 1.6606317342454944 1.7473323983254114 1.8355314350308451
1.8622556268626873 1.8056650797086415 1.7206889317038947 1.6927410588425282 1.749188403824385 1.8241322968053069 1.8221548308653548 1.7174485146897365 1.580742176986665 1.506718052091917 1.5253365480241863 1.5875666963137653 1.6234269832844697 1.6013336984280717 1.5388510163670106 1.4740776314478348 1.4350718531824813 1.43058499534764 1.4568161803864728 1.5036998785616835 1.5577801977267738 1.609253523384378 1.658747420616073 1.7107196979618953 1.7583738114584095 1.7816078982456474 1.7635975084727167 1.7064287195222598 1.6298821368922871 1.5602577394994772 1.522309826988073 1.5345841396702802 1.6021883519026883 1.7077839308480798 1.8084803180467315 1.8491234786489663 1.7968228949355007 1.6765061967183694 1.5644887980809978 1.5266729864404365 1.558482373866992 1.5985186161187979 1.6027623857489133 1.587059592213059 1.5906799384595325 1.622369250301072 1.6626958207725449 1.7015118081373595 1.7401210951296004 1.756901170670937 1.7066770435509329 1.5799698976271 1.4479956603282753 1.4143859844440343 1.5097410987917181 1.6522491111794102 1.730689336421412 1.7171058651049254 1.674085135707865 1.6525166352580078 1.6217749664883292 1.5337453502300602 1.4304421218323886 1.4271290997622683 1.569120949731387 1.7498009215206909 1.8162524725309377 1.7465552842095147 1.6807631502151776 1.7625969888518904 1.9773011792043758 2.1690047537447965 2.2048577231961732 2.096472934743666 1.9623416043533954 1.8992993391615343 1.908571441731025 1.9342185265312717 1.9418330546471196 1.9375642099788397 1.922511763269091 1.8681294265679564 1.757820829671835 1.6284678048388688 1.539439333538042 1.5096653037351973 1.5138418188113478 1.5361125983554103 1.5947375947490223 1.703097514254463 1.8291321234354705 1.9123504409602015 1.9157742086320533 1.8515714418861977 1.7611860425216805 1.6831030314888176 1.640843974075584 1.6461455215489678 1.6955191225267467 1.762634139897416
1.8098543475395283 1.8173061991863477 1.7926215108315031 1.7471878655827329 1.6806968945624368 1.6053568950026962 1.5668022694997745 1.6073596683241813 1.705421311354706 1.778525124371884 1.7644492692888207 1.690072442924182 1.6441679634399347 1.6821335373452504 1.7709913336301768 1.8347479177820338 1.8400276221184513 1.817439096730413 1.8041415151642426 1.7980235771029964 1.7866482366048353 1.7948306201967357 1.8625017047656336 1.971345477383294 2.027911747936704 1.947148050473868 1.7460579870177162 1.5356262055952745 1.4199809735717532 1.4157961153273568 1.4663608513374284 1.5119745618625111 1.5365941373533234 1.5626412146975361 1.619698093528421 1.7161623622772917 1.8265997580031008 1.9011769850854896 1.8967374135008293 1.8117591873338446 1.6958453579200665 1.6205832200959245 1.6343236671779293 1.7367565967080758 1.8827557498150536 2.0013441024147136 2.024960438628502 1.9280797320587597 1.7484865021665192 1.5623881548682166 1.434462678185059 1.393965981601629 1.4460214437130245 1.5806833993468925 1.763155512419942 1.9323057247876088 2.027150318518536 2.0206874573190516 1.9310961173285357 1.8062916794052084 1.6974662793842323 1.6365079302947723 1.6277348964809946 1.6588538503530046 1.719507268847701 1.8030811592087619 1.8872938119814462 1.9258229521759294 1.8788381915334347 1.7556064300922865 1.613928938028759 1.5113500633233126 1.4650790764320218 1.460701754601106 1.48286850019163 1.5248030210133148 1.5799492686903827 1.6430536713626862 1.7152515395197303 1.7892017472839716 1.82935899434892 1.7891865443635868 1.6607624572676298 1.4980865729986912 1.382309716574065 1.3687143214086797 1.465792696609536 1.640044067872624 1.8177308100318723 1.9013918851451896 1.8330389759210088 1.6599028085267395 1.50958854625306 1.4726950727960963 1.518358786891415 1.5429076902917214 1.4916613931305136 1.4104591902730221 1.379957103749789 1.4240478598942599
1.4943625229786262 1.530281927778771 1.5168667087763972 1.4854418071465059 1.4725994670461608 1.4879672825892858 1.5166255595856377 1.542195316786758 1.564611597923653 1.600460399750539 1.6664341546913828 1.75185194976241 1.8027302977114683 1.7543808736910935 1.6078930462182097 1.46527847351825 1.447361716112085 1.5613384255854426 1.6804975246148808 1.67961455812073 1.5712089911432865 1.4832268997082354 1.5160809716874515 1.6494095007657457 1.7839899984836767 1.8465080463471173 1.84544982392755 1.8429194063813792 1.8855381458056257 1.9594719516765144 2.0073159007017685 1.9898352960745989 1.9311337571781664 1.8969522993163863 1.9234399540523583 1.972571851759905 1.9683671130526563 1.8782815777681237 1.7492923061604089 1.6582664932168343 1.6327157985086476 1.627966698707915 1.5823302704407092 1.4890158098477582 1.4073951447243664 1.4019209538896475 1.4773850940288127 1.5813670323503486 1.6606046149169338 1.6971039873545684 1.693972526419971 1.6564664355212255 1.6044836796926703 1.5835549424318776 1.6317798402951162 1.7305559101401904 1.8078594701791963 1.8032738540627684 1.7204214189986693 1.6049141947038652 1.4854812762042415 1.3635870133753865 1.2586068508277468 1.2260100702892147 1.3054528125702347 1.466298274721178 1.6280247813592417 1.729284711079955 1.7616632375228956 1.7463134684758441 1.7038665513606401 1.6514311325636504 1.6073731601791512 1.5832023021552117 1.5763830239123922 1.5800629810997142 1.595289770600709 1.6243809190772212 1.654103207174223 1.6567233231098066 1.6147720437975732 1.5419560861265929 1.4735951476803122 1.434718975024849 1.421511596869274 1.4193028571872361 1.43518318071248 1.4964863553080894 1.6062718835534378 1.7150150165841314 1.7593160752640682 1.7266206521167697 1.662950854777667 1.617294126415637 1.5965154572949258 1.57674714480387 1.541946430772566 1.5039219005539866 1.4909322148602993 1.5161989941154037
1.55204108449133 1.5442274343024833 1.4700525938262583 1.382043637385961 1.3736482381369843 1.4894866298327352 1.6790639033941115 1.8483235330381473 1.9467495778169113 1.9919845490448265 2.021922186370074 2.0491307997202206 2.065387742930741 2.064456086110261 2.040355913039892 1.9768912903453988 1.8667401239354227 1.7449313700193312 1.6803463930794522 1.7153887184216123 1.8170919463153952 1.8992106504843855 1.8997440540082748 1.8392831227252535 1.7966656239361847 1.8148284601426878 1.836567707664355 1.7629079621887902 1.5856193672311873 1.4261715162592352 1.409235107813631 1.5180939391033945 1.6157759099575135 1.6026376472142152 1.51345394282226 1.454550193923117 1.4830964411196783 1.5685984667508932 1.6477080663239216 1.6846945859034907 1.681512796147976 1.6610333341848762 1.6609330567307443 1.7240537670214664 1.8543962775199532 1.9745282695359003 1.9669179700699302 1.7955313486599322 1.5729837975447127 1.4673823096187852 1.5363975952016704 1.681561229667763 1.7729172170983793 1.7853067238215312 1.7898786622967047 1.8402570221500383 1.9108797281761785 1.947531449181385 1.937581689761706 1.9058979333144486 1.8654296667707413 1.8096301329715878 1.7537561233957224 1.7455247863264247 1.8078106247538026 1.8882384217624026 1.9008468023176872 1.821966223349238 1.7175893377626654 1.6621742578769305 1.6498740858482117 1.6081914222718596 1.494600593847578 1.3570904603645768 1.2872025371554092 1.323906155442074 1.4205446089661473 1.5050751286493889 1.5546420638048242 1.6017029594106473 1.6786132841970196 1.77239044158979 1.8375238625637715 1.845767412991096 1.8144417828103467 1.7839367223119955 1.7758316374982122 1.781189641901577 1.7835976963811853 1.780194084745 1.778115221205627 1.777659691417758 1.761526388381398 1.7031068495508517 1.5965625047158278 1.4827239496283722 1.4281086009451678 1.4619125420864707 1.5420980315838473 1.599935846209996
1.6139749972322712 1.624606130662195 1.6772470540957933 1.7695817066116817 1.860958954827053 1.915387080416337 1.9199931597170456 1.8771930072371537 1.8061836882973823 1.7487564387293384 1.7426827827666747 1.775830763627335 1.7853070688104637 1.7200933952386934 1.5992522889412726 1.496032408227701 1.465865525824584 1.4997217410374 1.5498211595253555 1.5903672730351104 1.6401854314419715 1.7233051681461944 1.819060461477284 1.867044223505365 1.8256700542546238 1.7170777065055665 1.609487519005591 1.562955854608759 1.5955079450120648 1.6856359148228923 1.7859229173305033 1.8336000070514809 1.7721176601438733 1.5902330602460217 1.3491092960113031 1.1565963360309537 1.0922509281644681 1.1489087023660947 1.2559967826143186 1.3635191143494123 1.486969144004948 1.6529165666329302 1.81603019116893 1.8760291026162523 1.8014987150862365 1.701257549072409 1.7207741792145872 1.874005003173871 2.0280724197138364 2.0614893079215415 1.9861229614111873 1.887979932244727 1.7953943632576976 1.6611940495243909 1.4664316810747497 1.2891354654931055 1.238970791771197 1.3349782634479423 1.4749962275902675 1.538930843430167 1.5117282771653762 1.4866946664977094 1.5507265916581139 1.6903468216231528 1.8188042820283974 1.8709612581716508 1.850616444946259 1.8011502435509292 1.761589053841811 1.755384569827864 1.793900034703225 1.8645888965726318 1.9188935274297978 1.8974427548341812 1.7882677587696916 1.6579746451654007 1.605503058905053 1.6712465786736774 1.7970977665476149 1.885239639994605 1.8937206974168623 1.8689394708484093 1.8868517027282958 1.9674417187493396 2.0503207609585083 2.0570707075829135 1.9751090249810324 1.8719864042282284 1.825710719692874 1.8519227589201979 1.906232060458353 1.9448579711155114 1.9625804382998702 1.9693765816170623 1.9497031224284862 1.8662278778921233 1.7108324217112774 1.5428407177457613 1.457913376755416 1.505364138599603
1.6409341996185274 1.7747536731451583 1.8631702837907465 1.9331455708161247 2.0115599676240214 2.0602265128158557 2.011725321189266 1.8607373163155116 1.6869566210166747 1.5788634538059427 1.5556908298148733 1.5746320808965444 1.5945663089559257 1.6087712722121454 1.6194226220164913 1.6096620815624996 1.5613229351737603 1.487465811277279 1.4231077278016782 1.3863554610565063 1.3718005984345758 1.38369903389128 1.4472718863836678 1.5685089990947063 1.698697943788156 1.7658770646108957 1.746222526057875 1.6875043879877494 1.6523548162744601 1.651365613846808 1.6478466515268548 1.6204213775396694 1.596344220701321 1.6137887836774352 1.6673622732096112 1.708974854905252 1.7010121451467668 1.654445944858521 1.6097800175457655 1.591765009363328 1.5925823693148928 1.5930973795743177 1.5888815150844116 1.5944123431312747 1.6276248444557726 1.6919264674854264 1.7711627950969318 1.841071605978816 1.8854047354264876 1.9002632860847977 1.8836300225070117 1.8274255000440391 1.7315263685237037 1.628724547544962 1.5800465720178434 1.6256054543074157 1.7386231056359904 1.8395784113552496 1.85931448906329 1.7859568839454103 1.6599875836829119 1.5403219153534171 1.4728440833636183 1.4682968088791422 1.4955669896976007 1.506790128154846 1.4847661318645176 1.4633340012191454 1.488799751579847 1.5623850688420902 1.6347260868677604 1.6613101221615652 1.6501705868063552 1.6446419267526435 1.6687547934240987 1.7076157412411421 1.7424179918049112 1.7828903089082477 1.8465311933700228 1.9162458508582811 1.944387457849748 1.9039483154902221 1.8183700589587743 1.7337238656694958 1.67499351731298 1.6373016824405124 1.6072330772754264 1.5789295650862747 1.55325934406148 1.5342946498011223 1.530049868976725 1.5486636420886934 1.5869314213645334 1.624149014477068 1.6344196570390357 1.610491062925899 1.5734473706012688 1.5549642212344577 1.5739821374545235 1.6322885301659222
1.7161074238097802 1.7877228189521401 1.796420160424284 1.7318952028138177 1.6621018911221537 1.6791605136549221 1.792471840533551 1.9030926527003735 1.907663243250901 1.8126639408359464 1.722132875973611 1.7199471353502447 1.7872041258332314 1.8354027922653375 1.80283174923464 1.7144857940533593 1.6574109541561897 1.699199547361021 1.8252141260656984 1.95387647671161 2.009833691465975 1.9770043968305882 1.8913023002267362 1.8051391452545105 1.7592655333546268 1.758243621806239 1.7562652879009717 1.691434474833842 1.5600581588537707 1.4420372013598113 1.4234892952055753 1.500614530759398 1.5900504490631948 1.6350455405985316 1.6676408392350002 1.7480221888970284 1.8674219712453184 1.9437286259612523 1.9109744769266457 1.786967641961797 1.6459022841372195 1.5472131535323728 1.5071606833955966 1.5208694199762436 1.5788190217515006 1.6552528396724913 1.7064904620813577 1.7039825453441595 1.663026406397856 1.620822812656968 1.5881654598774297 1.5418076724565293 1.4681343365125614 1.3933694799954897 1.355411501798428 1.3591172971416006 1.378921767984423 1.3975735461509904 1.4177868571840457 1.4365627883120822 1.4366577448519986 1.41531956694468 1.400071218472083 1.4182447153691276 1.460691414927326 1.490527127315556 1.4856923493823728 1.462770536131916 1.4559001386331845 1.4782197966241315 1.511869472538497 1.5356403987683154 1.5518187657834603 1.5788286567649392 1.62654011814583 1.6912526966508166 1.7688776799786339 1.8544571704715413 1.9270525508809604 1.9566419076413342 1.9398436526672926 1.915139249552471 1.924504980004853 1.9645722376168953 1.9919883361074076 1.9776117088297385 1.9407779125811249 1.9233357517145604 1.9397158529809069 1.9642137886474906 1.9659476518679637 1.94416631393744 1.9216671356289747 1.9115389857096752 1.905083657277569 1.8923908733308745 1.8770835065651776 1.8615192264852636 1.8334986008302552 1.7859656189491062
1.7419685650818433 1.7378828559042447 1.7775787637808325 1.819220898177085 1.8179770638462918 1.7743365629726844 1.729658847509476 1.717093553165338 1.7291508044052493 1.737054759002816 1.7289800523835732 1.7075025944557436 1.6290083838690834 1.3491984072358765 0.6940271847935672 -0.3165727266933067 -1.3144630303779206 -1.793493779595644 -1.5830498866326843 -1.0489801870015503 -0.724251266540585 -0.7796881120348733 -0.9447725297860681 -0.8962456600654933 -0.5849251435143848 -0.1663142461577276 0.23651829873349378 0.5730485041480075 0.7365820180908281 0.5787109091798984 0.12800730057300597 -0.3135342301807238 -0.4223535043036144 -0.1957443462155337 0.041867513528504444 -0.006556618932398172 -0.3050755536443118 -0.55990209413581 -0.5582252278494082 -0.38174738764999566 -0.28224599831288577 -0.3921488556203577 -0.6036205188005356 -0.7208471224814849 -0.6666092593785914 -0.5139167357853064 -0.384187283035176 -0.37858812551938575 -0.5519782269381219 -0.8520236466977391 -1.09581613331143 -1.108345082878677 -0.9183464217586149 -0.7566947491576816 -0.8230047732421285 -1.0857619043716895 -1.3370589962632964 -1.412669428938694 -1.3264048512635171 -1.2089422888006207 -1.1581169151557766 -1.1641755000322607 -1.1620027156711483 -1.1227035848037863 -1.0730753801746535 -1.0450434674638427 -1.0508786517829376 -1.1114342763336655 -1.251787464113345 -1.4333807293311607 -1.536912007491492 -1.475867428362285 -1.3182208436655007 -1.2385352835090895 -1.3310869392660283 -1.5056077299407884 -1.5922018622663918 -1.5240650105730928 -1.3823595672430482 -1.274092314834987 -1.2150330195197532 -1.1510750060142063 -1.0515948428554525 -0.931857962083343 -0.8008765917705561 -0.6566419672645086 -0.5511405590828165 -0.5850493846211923 -0.7735061122256254 -0.9623616477393456 -0.9650758690667026 -0.7848537501753525 -0.630586534912377 -0.6879722054908134 -0.926056112149839 -1.1617082071578249 -1.266777204028336 -1.255555457510531 -1.1962603366459295 -1.1175256447430366
-1.0261374256972957 -0.9522365946979082 -0.9137057375131826 -0.8623663591082534 -0.7420775309685241 -0.6072743814314876 -0.6011013524185287 -0.7665287099773589 -0.9420208319383624 -0.9270328708331632 -0.735409034723031 -0.605087691330392 -0.7309101724963827 -1.0396170773692945 -1.2725334199431846 -1.2669629246904066 -1.1079753305903146 -1.0013993211554253 -1.043626706573876 -1.1427704088197042 -1.1352646483049664 -0.9482610852578593 -0.6731023041531231 -0.5096994007247918 -0.602532910493636 -0.8831701616459359 -1.101439559522642 -1.0685326337497647 -0.8580570829434587 -0.7142979565969422 -0.7684445967499113 -0.909930404600892 -0.955015758097328 -0.8712874615067832 -0.7728352077455076 -0.7341720514483274 -0.7009125472720893 -0.5980691645508378 -0.4456178299266338 -0.3179594368714437 -0.25050295414380075 -0.2569808672988487 -0.3912595843698343 -0.6865977586555193 -1.0340822830439318 -1.2276883484561651 -1.1821181247755488 -1.0444987323551296 -1.0311224460309836 -1.1839759496586384 -1.3442972100858115 -1.355893787414585 -1.2361665163846283 -1.1260127324867395 -1.114215105935877 -1.1565506392820863 -1.154892971798033 -1.06627104191353 -0.9248659789988658 -0.807206961656961 -0.8030507232842822 -0.9656785328829057 -1.2313503391255385 -1.4210447557594903 -1.3988698437914582 -1.2333470897944865 -1.139833633118957 -1.240682368173781 -1.4296506957111983 -1.5087690288853894 -1.4231539165647353 -1.3023932683203197 -1.2741628609611135 -1.305182960716963 -1.2692982418649403 -1.126065689971877 -0.9546687652606453 -0.8211507097278039 -0.7113267296747455 -0.6364269869693048 -0.7052111033722774 -0.9837727159233867 -1.3273526846871675 -1.477199956220636 -1.3488033915437867 -1.1363504527259893 -1.0852496172072013 -1.2196698925715788 -1.3523468345765726 -1.326547166344087 -1.1734321599912263 -1.0283772409519436 -0.9628219385346769 -0.940662317197198 -0.9019047731344954 -0.8308656476759267 -0.7373940014048601 -0.6173718510741907 -0.4748261954255404 -0.37775931280768416
-0.4377558686197756 -0.6850646844688689 -0.9804542439932328 -1.1150499105798442 -1.0242162131946715 -0.8628180864519747 -0.8333424693486625 -0.9646595545743573 -1.1019673786185555 -1.1043504437666247 -1.001296382576176 -0.9322573262380384 -0.9675504431104415 -1.0375962449459448 -1.040093560579945 -0.9678259158983581 -0.8903362813860972 -0.8301230474873781 -0.7223409878852564 -0.5344812086086886 -0.38175862438669983 -0.43755531263394315 -0.7080364682516859 -0.9700042296274014 -0.9960256385829666 -0.8076518526129174 -0.6434367009546541 -0.6881961309457867 -0.8910116790721637 -1.0572352979492374 -1.0687588832972967 -0.9788781638617591 -0.9130451607526134 -0.9240823738768255 -0.9641786483237427 -0.9700696866641256 -0.928018858427772 -0.8439000040921648 -0.6990662207127131 -0.49576800206990523 -0.33462457807003876 -0.36459659087724305 -0.6067366530197192 -0.8760908468192474 -0.9505081698832809 -0.8126480339949836 -0.6664039026978864 -0.6974997926003327 -0.8662327119378708 -0.9755133137236617 -0.9131323629589092 -0.7661420436543204 -0.6898348975150449 -0.7230913406453541 -0.7762325985493244 -0.7674292836831861 -0.7047203725258703 -0.6255401370268088 -0.5247100500434227 -0.39972656393421535 -0.32621884542960045 -0.39908918090542894 -0.5881171423908595 -0.7283518493376514 -0.6980424032148668 -0.5660438381954983 -0.5173627003650871 -0.6477537351411442 -0.8715028268251614 -1.0337334569102044 -1.075903719535525 -1.0632360859491397 -1.0694396199321332 -1.0831241750258171 -1.0460160478483957 -0.943810004698834 -0.8127636985842993 -0.6744523063273797 -0.5288132598628624 -0.4225487924265016 -0.4480853596147914 -0.6169839138901196 -0.7841563084636186 -0.7817879104038203 -0.6260355557022975 -0.5192397840068351 -0.6193034443787012 -0.8551283177415115 -1.0148093602000114 -0.990570289349307 -0.8775158566311607 -0.8262379061651053 -0.8618236441739415 -0.8883681168618459 -0.8249524587996621 -0.6794479423229692 -0.519079791787083 -0.4327764944023496 -0.49875950773455985 -0.7097250087559753
-0.9304337304618863 -1.0057045046170898 -0.9317819972563315 -0.8644340170967435 -0.9338451609599597 -1.0991043202058355 -1.215788194017285 -1.2090336996410023 -1.1366577270061775 -1.0949798604855172 -1.1061190673352097 -1.1132840900528471 -1.060865964799933 -0.9522000339601457 -0.8402844982935086 -0.7907809632560352 -0.8460983011753462 -0.9868313666704621 -1.121132693340759 -1.1492977333414194 -1.0655487304909854 -0.9810312236362129 -1.018804258470832 -1.181152829190858 -1.337916413774332 -1.3594374469192556 -1.2500014972307372 -1.1297060414240927 -1.092412145717963 -1.1136919837000288 -1.105717798562678 -1.0315211729953915 -0.9432267704475957 -0.9214960720222066 -0.993911153584291 -1.1064036671439077 -1.1677322142377187 -1.1354786657662659 -1.0696881298634675 -1.0854788335853092 -1.231115642075918 -1.4218411417156387 -1.5186529130693014 -1.4696669796246309 -1.348912936127797 -1.2556526729904276 -1.205085203867711 -1.1298683040727928 -0.9704939510148595 -0.7565217917089685 -0.6076285631323258 -0.6390323004716733 -0.8360436689325937 -1.0330865376809666 -1.059372204423974 -0.9144517639628306 -0.7691099063429327 -0.7813914448120789 -0.9385353429682498 -1.0948741336443093 -1.1353342954262107 -1.0679757186814953 -0.9693137891623355 -0.8801889654605907 -0.7697723011811524 -0.5889064636748915 -0.35773514606369133 -0.20056726828812801 -0.25700449120874147 -0.521318294194291 -0.8000540546820877 -0.8895832006081882 -0.7912955522658662 -0.6951877848973249 -0.74855950617427 -0.9051303279662495 -1.0240345819651786 -1.0484853842682431 -1.0270279208200028 -1.000036385782068 -0.9464815662317971 -0.8468927226864759 -0.7293701048299154 -0.6193014821653411 -0.4958639482589883 -0.3563741429266303 -0.2914448090794268 -0.40987148895860953 -0.6730267508681683 -0.8812246360535851 -0.8784352695610605 -0.72929933088766 -0.6361756525355661 -0.7015534820983907 -0.8321657222519805 -0.8779114480102759 -0.8048602281396804 -0.6998114415706365 -0.643001276428233 -0.6272959874310615
-0.6012064291914944 -0.5470269597745735 -0.48566232902306045 -0.4180825136505892 -0.304284576540667 -0.13226877876322216 0.005134675801747634 -0.042453861326605107 -0.31934224343838136 -0.6741289297064933 -0.8864244170778842 -0.8811551088462334 -0.773386634847938 -0.7071477344225575 -0.7124459473912099 -0.7359255685786533 -0.7418152949685655 -0.7282700466858557 -0.6839318425687904 -0.5957866140851386 -0.4976261008002642 -0.45717097570534665 -0.49724826143285455 -0.5631590441381641 -0.5895217398230492 -0.5763673256828022 -0.5731008947199561 -0.598425188133263 -0.6059933174223545 -0.5436073643827128 -0.44200094376843146 -0.42446741127689863 -0.5921640408065464 -0.8841373319234703 -1.0914664045583886 -1.0594606040404118 -0.8617947713959787 -0.726092259355436 -0.7887390816363292 -0.9673379264774878 -1.080843462778703 -1.0501028708012925 -0.9546127033151975 -0.9193025066468438 -0.9792738024325217 -1.0581134380258368 -1.0659402471818018 -1.0054022559830496 -0.9638939810029847 -0.9995010951448622 -1.0655893146139133 -1.0679244787967455 -0.9639385766130805 -0.7784602302391174 -0.567571958867307 -0.42047188779481615 -0.4513514520220315 -0.6956119477426036 -1.0134329975477323 -1.1835814944509349 -1.12979406988801 -1.0030592912976248 -1.0068082110265164 -1.1789995701034808 -1.3794914435557033 -1.4618709222020605 -1.4139480853715876 -1.3318833428880885 -1.2936567669360342 -1.287078268046429 -1.2595425953499229 -1.2068093742563004 -1.1796271036918418 -1.2043693234321244 -1.2336409732978753 -1.2003833109050175 -1.1001278957515819 -0.9864056784512507 -0.8981583225108799 -0.8389646938896885 -0.8271202322650169 -0.8991990133984883 -1.0277172139389066 -1.091066586561743 -0.9912485281930957 -0.7866262580811823 -0.6538313303125742 -0.7097255168248743 -0.8978715156738003 -1.0531681610371864 -1.057376282731117 -0.9295856747926418 -0.7859512451200646 -0.7254028422293947 -0.7518591868340543 -0.7981375887957541 -0.8095190981241261 -0.7856275107681789 -0.743560406176767 -0.6708659997079433
-0.542960547584382 -0.38512278525431354 -0.2901726935453825 -0.34352080355830644 -0.520183699807013 -0.6787469609204201 -0.6885444193710506 -0.5667170415297593 -0.47132674852264606 -0.5491318245423568 -0.7927465719925642 -1.0478325493611116 -1.1575350441594847 -1.1009201467557437 -0.9935268387663613 -0.9566033092308162 -0.994493849936901 -1.007896095258258 -0.9185931562579726 -0.7564337090834616 -0.6115643557434942 -0.5269088765591147 -0.4791052189346866 -0.46211665660443674 -0.5272782432218817 -0.6947609297135567 -0.862722760868796 -0.8767160033368483 -0.7043274653821673 -0.4987436334813542 -0.46107047024010367 -0.6482868211683156 -0.9257748490404335 -1.101641605176989 -1.1018442945120266 -1.017339571651275 -0.9899084054191929 -1.0686600729051514 -1.1880349596551847 -1.2666437358605638 -1.2944040020311283 -1.32339357009063 -1.4082644069471 -1.56595819097385 -1.7581936779801615 -1.890058307761659 -1.8570429797810677 -1.6369697619814418 -1.3368129993279054 -1.1217947678183007 -1.0835947427434784 -1.1747437296288497 -1.2618006162624593 -1.2378728458475403 -1.1008364498888352 -0.9434182038038558 -0.8674060941999318 -0.8936143054581739 -0.9446616929636943 -0.9125294811859248 -0.7576470427121125 -0.5710970833321461 -0.5348154517058096 -0.7634040614170973 -1.1540698772134188 -1.4426293848642064 -1.4606099866494244 -1.3103333641455763 -1.2343777676260907 -1.3296074343856108 -1.4544972474423534 -1.4296566809739284 -1.2612934484431075 -1.108468105691526 -1.064334243029024 -1.0528153727212675 -0.9580540296535065 -0.784434049128687 -0.6296584447998104 -0.5289921546105913 -0.40044134367995454 -0.17571257001795335 0.056413319478690174 0.10764826083812398 -0.08740586778743865 -0.35857949501946196 -0.4630165556384231 -0.34024749458885156 -0.15209371780113098 -0.07820266583149456 -0.13907927590514593 -0.2445487863166637 -0.34883274409740933 -0.4798896344528127 -0.6287381160186479 -0.6957738854982657 -0.5960345428392667 -0.3790402947944842 -0.18455039736969905 -0.08123460811769907
0.0014031769953576532 0.1619842964772698 0.38302090369539754 0.5294428972612695 0.4837960352905377 0.26617935070754284 0.022678408878755114 -0.09737582658329388 -0.060145859492265065 0.036575663524410905 0.051687545005694675 -0.0863022543724528 -0.3290676551140913 -0.5579118325726163 -0.6926454132764661 -0.7582951026926292 -0.8392949365374502 -0.974953960479709 -1.1223740899257901 -1.2263284204357625 -1.2962309697120968 -1.3865539578154267 -1.5165250232223066 -1.6501097275994014 -1.7575884244127369 -1.8445547460095737 -1.8882568893529412 -1.795953281070727 -1.5019353492512908 -1.1025457873845004 -0.8192200770484999 -0.7867699086669131 -0.9124307645321807 -0.9761440385070989 -0.8475432112468618 -0.580260790829013 -0.320703139554168 -0.16970241430033975 -0.13455393546456026 -0.16880665800219358 -0.21453116058607383 -0.21348421358493833 -0.13384432017417452 -0.030874604585229237 -0.0530505736066412 -0.31204850011248964 -0.7197949961299778 -1.0118831443565002 -0.9929934155382641 -0.7491080922977039 -0.5704128376507897 -0.6525212428307254 -0.902147785345322 -1.05580585221374 -0.9672630728151504 -0.7425699339669304 -0.5967650111800323 -0.6253153566000055 -0.7444284781749985 -0.82140182277437 -0.8088074069354257 -0.7425637321188913 -0.6513410732244167 -0.5193733431814472 -0.35832716193299835 -0.27772775378623765 -0.40894429309249575 -0.7318382404803799 -1.0376227757044358 -1.1250068640564446 -1.008473703467067 -0.8793796795324534 -0.8793600414425545 -0.9719316596902037 -1.035379616529113 -1.0156650915932015 -0.9546495257514701 -0.9086524541122633 -0.8881586925757889 -0.8737245407680112 -0.8558590119736983 -0.8402960519375543 -0.81979697020694 -0.7613300970044323 -0.650422760106942 -0.5544195724547918 -0.5943066431198999 -0.802236291607951 -1.0314637905692476 -1.0814786075086944 -0.9312893717220966 -0.7936907132858192 -0.8968501268928512 -1.2375789644210378 -1.595541303123432 -1.7859778475709533 -1.8438626396280189 -1.9282589840570958 -2.0958220237895873 -2.247371900636622
-2.2836118046604166 -2.2042430071119865 -2.0179014289873964 -1.6779989612846624 -1.211207989325379 -0.8177356449892772 -0.690458439275603 -0.7460408431354778 -0.6724095789978604 -0.3026152339131129 0.12541042669596084 0.16292599158869642 -0.3786668987928808 -1.18431282132694 -1.700394374570821 -1.643199709041206 -1.2132232244995578 -0.8155537173027709 -0.6451302197888994 -0.5860831952398304 -0.4332532499879876 -0.10322573608048542 0.34637016671844767 0.7739637125673893 0.9832867917270388 0.8072347996587136 0.2766353317251698 -0.3326731966788435 -0.7352410262692854 -0.9293378776431215 -1.1644014628177033 -1.5906757484979144 -2.038615468079124 -2.221800532830601 -2.093422939403353 -1.8891059804623702 -1.8235628220813473 -1.8615817082100128 -1.8446841533940568 -1.7565606377279501 -1.7477343482222256 -1.897396762438499 -2.0589042042969585 -2.0290035991249846 -1.8350513370058894 -1.7352255348903676 -1.8850355878076896 -2.09918245717557 -2.0520732243873856 -1.6808870336390662 -1.27631554005978 -1.1533759800640249 -1.3186873042902854 -1.5138581332244498 -1.5318617045436975 -1.4123334848966806 -1.3277405948471215 -1.3557186747488645 -1.4190506417280389 -1.4128573036676604 -1.3117495329040039 -1.1387814873140707 -0.9056896850736263 -0.6512185290313035 -0.4965825485651985 -0.5534083752513392 -0.7463271967239807 -0.819665571877632 -0.6000417187673894 -0.21036830682448587 0.05468796352675465 0.05115054472997524 -0.08572879451499929 -0.13441033181849626 -0.0332423727878139 0.10378827137492767 0.16397768221543976 0.15817822400609874 0.1647180058979859 0.20654647627704115 0.2265752257783773 0.18014961902363763 0.11311800875088839 0.10849424994917702 0.15759986391403966 0.13709597727034864 -0.045649785805219695 -0.31582066511726986 -0.4970254939785972 -0.5136308040240662 -0.4781793309586535 -0.5541992056936532 -0.7593798560914095 -0.9391444224918994 -0.9383416445087996 -0.7743435096496748 -0.6178194554872216 -0.6133782595080952 -0.7565635516893069 -0.9535076131930541
-1.1451901888671334 -1.3243735564696633 -1.4699026299413074 -1.539956311358022 -1.5287057902969805 -1.467610502360704 -1.3579055178898027 -1.1492610892445025 -0.8120195345710881 -0.4137593026706586 -0.10041821847149131 0.017411645684713917 -0.027522452889482532 -0.0722317880202174 0.03576293978198636 0.3049409922658563 0.6033139326029098 0.7720856740111218 0.7305849938837605 0.5193123508507695 0.28190014634657906 0.1585011539214261 0.1290403221699089 -0.004009853141390966 -0.38816959639141707 -0.8864041352784964 -1.1717879849826944 -1.089870638566107 -0.8455994585705628 -0.7702403247503034 -0.9565326873691913 -1.1993599948734681 -1.2707275350118072 -1.1635398928966518 -1.0427156335532715 -1.027508387600283 -1.0811353376248105 -1.090598772899126 -0.9959753663327362 -0.8286569837755393 -0.669770058787981 -0.6132122174927163 -0.7379970680376992 -1.0384471338576498 -1.3647269681019172 -1.5076393843725797 -1.4013817827950377 -1.208413757039345 -1.1519024395772728 -1.2833341869497759 -1.4590379606369543 -1.524367098784464 -1.4592181982527963 -1.3378648827778972 -1.213300782767364 -1.0918339872633234 -0.9912348769492223 -0.9524382022895551 -0.9665207574092696 -0.9404233295128649 -0.8055094534924658 -0.6563963430977429 -0.6962338990394598 -0.9909666792523455 -1.3367422851620825 -1.4550588422144894 -1.3066010406197464 -1.1364377025455499 -1.1945516522466122 -1.470577633604676 -1.732371601342576 -1.7803048732174933 -1.6211172124514215 -1.416042285842066 -1.3066768827412487 -1.2970462516061214 -1.2762426963965119 -1.1421331522054559 -0.9158531362230637 -0.7434931376894008 -0.7680061224606826 -0.9761832336636135 -1.1794364347798982 -1.1831609781862669 -0.99480133574977 -0.839972409876036 -0.9427643488133259 -1.2962964577701315 -1.6721232857557278 -1.851108835986599 -1.8208810094948547 -1.7449057875212546 -1.7683167059885132 -1.879888381606301 -1.9543719161215272 -1.8995653982438672 -1.7494383821727273 -1.6269436008241018 -1.626751323752223 -1.7273326881385123
-1.810808234518514 -1.7741637881562125 -1.6270031571521042 -1.4807674891617388 -1.4437266064853689 -1.5278136718502218 -1.6529080381617 -1.7334934257799328 -1.755566218107946 -1.7713520502001834 -1.832356000154464 -1.9401049333702767 -2.0537446016244685 -2.1205427801799344 -2.0868680735740397 -1.902466007226737 -1.5599902947040405 -1.1466324947843154 -0.8073405538687534 -0.6000580160449424 -0.40779345249405247 -0.05762479983249661 0.46596191869187703 0.9672643263836901 1.20902635150838 1.1209630265252948 0.8507917173855515 0.6312178587001038 0.590317312995771 0.6710811964569928 0.7306951189491417 0.7173804180514374 0.7264935053169828 0.8543300316293979 1.019297221129762 1.0027023934786312 0.7006872756910456 0.2743442587335135 -0.0136317523075654 -0.07741668972106644 -0.05695286802049445 -0.10940485165938506 -0.23498156268231252 -0.3343922059393993 -0.3712741678673124 -0.40536634737491606 -0.4713621541144186 -0.49658678419988905 -0.39081014615982873 -0.19207376173951352 -0.059643397535335194 -0.11001298015128272 -0.31288246579494694 -0.5770014002646863 -0.8791118377738708 -1.2369335151841725 -1.5828761834246352 -1.7625550697549313 -1.6965309128912878 -1.4891477639880468 -1.32888559255902 -1.303786524651568 -1.3545465610374183 -1.393714931416789 -1.4171920217501144 -1.4758276068809886 -1.5702018909470454 -1.6198481450272775 -1.5465014174109768 -1.3584318891834206 -1.1280087507249266 -0.9091253496563722 -0.7253199508770612 -0.6317059900317294 -0.7018039328274975 -0.8955409178581839 -1.006997357939564 -0.8484133707007525 -0.48306070918159977 -0.1899278836821822 -0.17487619820754166 -0.37767949806639867 -0.5870550603225954 -0.6813430823171455 -0.7041425324133371 -0.7458153517479649 -0.8273179502770519 -0.9093231621783386 -0.9572025522268562 -0.9573158350691514 -0.8977291726263309 -0.7858814211837545 -0.6879042341140263 -0.6972766488994924 -0.8285485084639936 -0.9679187147865403 -0.9721703873092468 -0.8227054249115874 -0.660789595467181 -0.6559872283280321
-0.8387144335489595 -1.0686045866062235 -1.1732897745998334 -1.112156952537057 -0.9924793163850045 -0.9335725089351271 -0.9414649826284832 -0.9232174481581472 -0.8019287708811872 -0.6047582046747522 -0.4486287785186454 -0.44075589538136745 -0.5757018364641537 -0.7274248060226608 -0.7620998535666698 -0.6681607142759888 -0.5656684128488804 -0.5833607141923088 -0.7339804691510987 -0.9132349593071193 -1.0137030818049697 -1.0291819114857856 -1.04017825461671 -1.1036253015985082 -1.1791983524648963 -1.175036973896785 -1.0473882780379777 -0.8460252104805249 -0.6930001777258425 -0.7302527974753561 -1.0276220452504525 -1.4766477757796592 -1.8003180681225694 -1.7529931587402958 -1.352587823458908 -0.8834465305848693 -0.6271409463215909 -0.600050575276655 -0.5951978687018696 -0.46670701516393065 -0.2959528550188668 -0.24944284983591905 -0.34878030006458177 -0.4522937490512365 -0.43181206784701104 -0.30618039516058804 -0.21542013450080935 -0.304342389851812 -0.598378062275861 -0.9356435832250521 -1.0538739528136196 -0.8301936429657577 -0.43790593624424096 -0.19440985479069983 -0.2427380576002496 -0.44579335254504315 -0.6009504494510827 -0.6744077880177541 -0.7761796071965266 -0.9672872625598414 -1.1712925369078058 -1.2696362992298817 -1.2294608271409269 -1.1228392559748797 -1.0481881653253695 -1.0532930090855883 -1.1321963431432334 -1.2738263175015039 -1.4743856942526212 -1.6874555075398208 -1.8074545065880345 -1.7597371479010286 -1.603008157152548 -1.493893820637159 -1.5301134794361089 -1.6513387675242372 -1.7110966299487977 -1.6301354190551978 -1.458902979326067 -1.3006797446697977 -1.2091529460281263 -1.175207475737522 -1.1763598883450253 -1.1891522685136202 -1.1635448468025185 -1.054573651777904 -0.910886148418922 -0.8712003746411737 -1.0062010238112895 -1.1944393463605014 -1.2364855310152563 -1.0989791519710375 -0.9716432608410069 -1.0428640147421995 -1.2672208259017859 -1.4147727555097593 -1.33840371596333 -1.132692432898478 -1.0050407458897197 -1.030290403557709
-1.0819255997369088 -1.0037857688012772 -0.7988306214262502 -0.6062086789030781 -0.5161276114042708 -0.4811342242059024 -0.4337196654362118 -0.41226740121781874 -0.4896894397257088 -0.6150920805543969 -0.6299231629149873 -0.4669243915290953 -0.2655449352053339 -0.23831947921790725 -0.44295139839202213 -0.7281013305356996 -0.9065166047251852 -0.9449291192472701 -0.9561233100605157 -1.027137093629232 -1.1092677425690658 -1.092533973685061 -0.940025375533358 -0.7127267794827162 -0.5055938780209049 -0.4111920824390372 -0.49993341354726445 -0.7465522994371917 -0.984736649701652 -1.0282651041517767 -0.8718765096761688 -0.713119192494119 -0.734979475785637 -0.9067716931584938 -1.0420313506284762 -1.0217154389847598 -0.9043003381698916 -0.8233015323803808 -0.8337120134511377 -0.8799399285854244 -0.876663681654566 -0.7911525100410681 -0.6678517382217894 -0.6022677976928608 -0.6746017706594077 -0.8692869809343529 -1.0588634700307262 -1.1080509795537707 -1.0177794959733322 -0.9443694501746349 -1.0489457214768008 -1.3352291510009962 -1.6475826519690757 -1.8012346806334798 -1.6898764390050063 -1.3140266736580684 -0.7830353211453827 -0.29074201194486743 -0.014834726462057003 0.007183373632796031 -0.10969669278763788 -0.21950099254809582 -0.2657865155040006 -0.28514817330836584 -0.32247729622300053 -0.36668912484763494 -0.3694028836798581 -0.31203017070995487 -0.23588316365595483 -0.19784979983283046 -0.21047850191797324 -0.2426780658149527 -0.26803565989669675 -0.28838044262515866 -0.3148581286260877 -0.3486288782263505 -0.37674816804682876 -0.37513665993913387 -0.3412710362020143 -0.34607547894585405 -0.50431829283183 -0.8314730790270539 -1.16036917400468 -1.280490291495041 -1.1646312370862963 -0.9925513255764499 -0.9359522948087783 -0.9833530437202744 -1.011193969336491 -0.9688508321940424 -0.9236797525269249 -0.9417770578070738 -0.9986459633533705 -1.0309617627597518 -1.0230290035221166 -0.9955769095201934 -0.9446916243147995 -0.8662356592917138 -0.8373959230903522 -0.9778211482306426
-1.2766685102835649 -1.5310176902791954 -1.5438085621638766 -1.3603618443854835 -1.2316175914622614 -1.3365243508096758 -1.5990220597764466 -1.800417316562498 -1.8244765307352426 -1.745815131303581 -1.6959201484273825 -1.7024966811841173 -1.689311899646194 -1.5973327039738212 -1.4499843122109914 -1.298494292211664 -1.163101197665943 -1.0643217626480366 -1.0629789697336969 -1.1968677946404676 -1.3834039714905706 -1.4562370565665699 -1.3338787860433095 -1.1166420711462886 -0.9782562516972221 -0.9772130745990354 -1.012824702339771 -0.9642355228309504 -0.8298137051386242 -0.709124731781258 -0.6797808500021482 -0.729213034900807 -0.7965406565316803 -0.840700139941802 -0.8514940303471984 -0.8171907139594935 -0.7202253626749053 -0.5890381188370332 -0.5313473167887841 -0.6525003937356991 -0.9132472625849196 -1.1221677471029594 -1.1250475771432726 -0.9759792152252914 -0.8669235248442905 -0.9020549646963852 -0.9992450086253405 -1.0182139807009511 -0.9279814750728941 -0.8144270535351843 -0.7564995249729718 -0.7427159095737685 -0.7120655060605937 -0.6438514363954198 -0.5836922972872889 -0.5844506667445067 -0.6348381718723808 -0.6574147203709523 -0.5905368473542557 -0.4775289728725973 -0.4497324775297156 -0.586426344438938 -0.7995518599575798 -0.9038137248759096 -0.8183057963587897 -0.662788287916287 -0.624554894607397 -0.7516947515864085 -0.912223173205074 -0.9485445851370999 -0.835772788896678 -0.6808036559122401 -0.598017969463264 -0.6126965919766942 -0.6741116570548088 -0.727219961509924 -0.751103351194985 -0.7415176277081796 -0.6854437672731142 -0.5690982798676085 -0.4125195971888066 -0.29202730267735943 -0.30748527384494345 -0.4904756478087238 -0.7349397704535355 -0.8588665370844137 -0.7768079580908529 -0.6044943591808716 -0.5579522332842178 -0.7375299528302262 -1.0279929662760148 -1.219721650054644 -1.2102512185008345 -1.0712954723544208 -0.9397809134302849 -0.8832152691527323 -0.8748039775740974 -0.8592953997941152 -0.812059071799736 -0.743736702275205
-0.6734505486309154 -0.6129191188299207 -0.5762438110417197 -0.589153292266313 -0.6670141920048752 -0.7779815214859458 -0.8483110967724455 -0.8346464851932885 -0.7954486076567527 -0.8530158438473949 -1.049871535506157 -1.2655774172594352 -1.3258227647618117 -1.1942540447045635 -1.0124029258597245 -0.9417121026910306 -1.0119707351813296 -1.1458418203929839 -1.2741599342777583 -1.361424745980632 -1.3534060591972243 -1.2055691380692906 -0.9848687574721329 -0.8423508524900565 -0.8236425260066639 -0.7885902166967581 -0.6044171742144695 -0.3565482184497631 -0.25542485407940013 -0.3532495833190758 -0.4697480854136701 -0.4296523959006692 -0.28121701005518357 -0.2127589976241238 -0.3066064517752694 -0.4581790348852319 -0.5233399135528799 -0.4613019050183674 -0.3194195816068825 -0.1730284648947383 -0.13843996357817415 -0.35309590926365897 -0.8219569176493975 -1.311596196907298 -1.5192562962352532 -1.3769802881416036 -1.1158990185487327 -1.008908642632362 -1.117559494524448 -1.3170395358918419 -1.4884836147661191 -1.6096387795345448 -1.6893146092577755 -1.7048987409005099 -1.6418398575696274 -1.5517905227830255 -1.5128473656775676 -1.5186136062481363 -1.4497479851355115 -1.2153364716350468 -0.9228929563374134 -0.8251703703327178 -1.034809113731827 -1.3469081878859421 -1.4378452263506338 -1.2253493668231155 -0.9416819030695408 -0.8411472431387429 -0.9255523043783015 -1.0054606649642488 -0.9597026953719936 -0.8421022029212818 -0.7476404348254254 -0.6785235930883159 -0.5990672012821773 -0.5541483826312433 -0.629689041158798 -0.7929146714335618 -0.8624018407916595 -0.6968975278074326 -0.38728893434039435 -0.2054966938376877 -0.3392838463955561 -0.691512926975016 -0.967083138683741 -0.9623886074481877 -0.7489812973573448 -0.5698108965431035 -0.5903991258382247 -0.7759977252423068 -0.9807116224660648 -1.104817911128379 -1.1568289973622154 -1.1987082102357598 -1.2610024487926585 -1.3115921000200566 -1.299659470037927 -1.227518890826222 -1.1643653106177156 -1.1690302313761103
-1.2136597918855423 -1.2237927715075565 -1.1887388789802555 -1.1751462264686727 -1.218147736905126 -1.267826856271117 -1.2887653807186383 -1.3498483316896788 -1.523223175112532 -1.70265141579083 -1.6308559192056353 -1.1850995782972678 -0.584554823525102 -0.20345384281241982 -0.16862644022200798 -0.24878573319999261 -0.1820800944707413 0.010813807470862783 0.13478143869685108 0.11708000750006162 0.023657834967706806 -0.15371412560266787 -0.5028174660636736 -0.942021310184073 -1.152380211930011 -0.8876777434294281 -0.2840424608800198 0.24822233968063206 0.4373058801125513 0.37572969737611883 0.3106366301459591 0.2966963940341892 0.16097950693838864 -0.21031455465663554 -0.6755103166025436 -0.9793396177596441 -1.0163205116392118 -0.8990999553122988 -0.8248039946342908 -0.9303007431144257 -1.218503737952399 -1.541502059890809 -1.6831991449936443 -1.5469889975512305 -1.2747058686919288 -1.1235972734877662 -1.2072842837272237 -1.3944748765348405 -1.4747521482389212 -1.3824810587284921 -1.2261862594934863 -1.127583607904528 -1.0873896480567182 -1.0228563205025696 -0.8967212329692508 -0.7646475064680378 -0.6948509492068724 -0.6800786139889531 -0.6577280358982459 -0.5969878102897219 -0.528709607649636 -0.4973545648489749 -0.5305543752824201 -0.6666008642022733 -0.9567057911532116 -1.3861711473299212 -1.8105752936743118 -2.030312680023448 -1.9517704439675185 -1.6568931524750363 -1.3141632003365034 -1.0394180382205627 -0.8333557019886856 -0.6269104762156418 -0.37588640729699074 -0.11098362284773125 0.09138774736242317 0.16067397970070255 0.0638207340514633 -0.1637579308459771 -0.4087933957517403 -0.5543155923524009 -0.5915297537065993 -0.6257976499166099 -0.7492249050385629 -0.9339044694310662 -1.0715703229813858 -1.0916729241656629 -1.0124257653110391 -0.8982610562718846 -0.8069308504013634 -0.7723548185761314 -0.7954541367850011 -0.8294351869714283 -0.7974310048173238 -0.6647347293963536 -0.5064954237797752 -0.4694981891412541 -0.6219109342696959 -0.8496133306648918
-0.9565875374815263 -0.8837671404385553 -0.7755005173661342 -0.7934709879579699 -0.9124067615610014 -0.9656693577857234 -0.877162183466757 -0.7692376179805869 -0.8072861077638156 -0.9894864580732038 -1.1507657134717635 -1.1609213446845614 -1.0523748865499116 -0.9309830658886553 -0.8308937771960447 -0.7346095465524835 -0.7000851334439283 -0.8446897151565721 -1.1585627088072006 -1.4300888301333938 -1.450216837201696 -1.2570071568555419 -1.0953875917778373 -1.1376628611491206 -1.3110447662050604 -1.417345985097524 -1.3649439694737548 -1.2361691591873005 -1.150320351291366 -1.120798270237516 -1.0712268733420507 -0.9509412453008483 -0.7783883197807245 -0.582730346943391 -0.38200323287246996 -0.24968543784191338 -0.316674034623225 -0.6149227789164756 -0.9562454981790588 -1.0767511715467564 -0.9252945935747509 -0.7303666663837781 -0.7358264418284483 -0.9252227900156293 -1.0714020257879158 -1.029679679565391 -0.8964501121492597 -0.8554037990246298 -0.9386587599459948 -1.0074769111876953 -0.946008009859224 -0.7973431290765886 -0.6762837964354189 -0.6015275199585604 -0.49491837793764654 -0.35009452364687205 -0.3051322685895229 -0.4719470753565667 -0.7466516365353384 -0.8927573097204349 -0.816731381478098 -0.6771099141547073 -0.68692040498385 -0.8708263120276033 -1.0784105621629354 -1.2058655091556567 -1.3178360150293968 -1.5193115744115613 -1.7688697311166708 -1.8889519608313066 -1.7570243198871602 -1.4363706760804518 -1.1008351723773044 -0.8653378739624153 -0.7246589562642765 -0.6357120170594529 -0.5897543222777215 -0.5711680447879959 -0.5059951776028082 -0.33689969071187786 -0.15068453761374911 -0.1540849533472785 -0.4673943587485596 -0.9584625990134918 -1.325946991087564 -1.3648404281149962 -1.1371467984176233 -0.8740457707639592 -0.734750088890742 -0.6887374929991158 -0.6162366860385284 -0.47444765706719444 -0.34761018098153273 -0.360812772289654 -0.5623839512228223 -0.8730281906013987 -1.1363514304410802 -1.2440022573386953 -1.2440442531647573 -1.314030224567858
-1.5811283792702286 -1.9586800383265137 -2.205994224001809 -2.1783708256089027 -1.9801555975228904 -1.829465566906472 -1.8031161581389432 -1.7758559364071436 -1.601642622104569 -1.2824706843821214 -0.9353849728486419 -0.6592309895340754 -0.48618865319490967 -0.4180040278414178 -0.4382416391973822 -0.5047005489652722 -0.5974518010119376 -0.7728447523309834 -1.0988399405624765 -1.514789431847091 -1.8203556302073516 -1.8537368722869834 -1.6481412938031617 -1.3694078227809288 -1.1291378433849772 -0.9146462547772312 -0.6868782732519266 -0.469746702625288 -0.30948483134019417 -0.20262570947023273 -0.12484543110421126 -0.09939438689514869 -0.1569522129577795 -0.22642096598099376 -0.1570642870315665 0.09530487536908394 0.3609611637752417 0.41409285551011665 0.22977803940831187 0.02023497597291617 0.0012187146805215075 0.16871355649757716 0.33185611136524973 0.32995256224336617 0.17112493851089053 -0.03264600135960873 -0.20547583049242038 -0.34539056634141013 -0.4639336528740566 -0.5557642518315662 -0.6296613753583898 -0.712558816932496 -0.8012742549976732 -0.852514444893174 -0.8537672861468601 -0.877099355978428 -1.0173770578868169 -1.2744864037516366 -1.5312430865565503 -1.6663536763162974 -1.6686990585495498 -1.6149480273194359 -1.5465884549650122 -1.4101330923761892 -1.1368648248674562 -0.7534699668555229 -0.38628125544187963 -0.17339560486992728 -0.18988459606961733 -0.41623292857130056 -0.7256431444215073 -0.9275798274392429 -0.901833039414582 -0.71650224555788 -0.5740367133384602 -0.6095877614888849 -0.7555247792411482 -0.8248978907729089 -0.7217657382321946 -0.5476510147974648 -0.49182617264403733 -0.6269821942494038 -0.8254444316127688 -0.8761964985957518 -0.6804503524773114 -0.343470698331744 -0.09327990698935516 -0.10638807951293813 -0.3813080133203194 -0.7512434698051376 -1.0181216752445923 -1.0983231778752078 -1.0657701446864363 -1.066357214241125 -1.1845263330390075 -1.3785997517119317 -1.5371103265061241 -1.5959539958616438 -1.5951432055653614 -1.6141846468024565
-1.6642097548061638 -1.6770719640308225 -1.6096895612801614 -1.5121753624800267 -1.4492810870102697 -1.3926947761701354 -1.2663708890093246 -1.0912217929041004 -0.9987518861966862 -1.06882484835427 -1.2178777957423452 -1.297034093459251 -1.2659783930572428 -1.2241250033602966 -1.283065753084856 -1.4401643588016466 -1.57542448088634 -1.5573610788702819 -1.357639316154441 -1.0730169028422327 -0.8321721317422225 -0.6794997539644398 -0.5565664836043221 -0.3899052699019463 -0.1765454390672059 0.014181589158272253 0.09622702247934017 0.023896931335464968 -0.16608056078906963 -0.3473271438294041 -0.3713492071016965 -0.18742458005947857 0.09848339616852302 0.30969309042436066 0.3610872109152917 0.33053123635747916 0.3639975578471057 0.5248455592647118 0.747964253714552 0.9171388645463764 0.9504427528021759 0.8224929203541401 0.5722005723282151 0.3339209559925658 0.30450223197218945 0.5697874635709986 0.9455162303419387 1.0986707913262337 0.9093214126850244 0.6540946728643358 0.7316244919195046 1.210454258523263 1.7288160615533361 1.872523580044828 1.6047223415566207 1.2751234602351598 1.213935548623054 1.362082460516577 1.3426990717267642 0.901732238387197 0.21882982696575298 -0.2986180674523264 -0.5034382288871787 -0.6363813299956387 -0.8966769960619795 -1.0592556359892982 -0.7305967265716274 0.07731047209183128 0.8717753661841275 1.2238306333277291 1.1818542278903514 1.0372665149513693 0.8672417487787316 0.5275854422786326 0.03759082744184702 -0.2730029173310648 -0.10687063919356082 0.42131721584235826 0.8651349712756303 0.8888154713688502 0.5692063803736066 0.2750221694419817 0.30980677798973705 0.6822997502821601 1.1675781720992486 1.5323582001012706 1.6874984995347149 1.6510545486967445 1.422597914760807 0.96965251001928 0.37219953797627736 -0.09189008823616937 -0.13464566829342808 0.2290687683974818 0.6412582545446964 0.7398277134288087 0.48622905629208873 0.09158171892778537 -0.31189124696766846 -0.7715103070657071
-1.2541405580289926 -1.450296787497045 -1.020728456411188 -0.022518415244991794 1.0781283988059032 1.8706143338175956 2.3285302612457923 2.582669849641858 2.538443457538402 1.9481308978166147 0.8289913295925524 -0.41064196361378186 -1.3177337556098851 -1.7136110372851863 -1.6267442588998826 -1.1104256836204889 -0.2880729559164433 0.5336906290025971 1.0068835536906608 1.0334317418893335 0.8171919286612411 0.5990813380419965 0.42012666695804535 0.19714790243701402 -0.02996815521458434 -0.04157225844484592 0.3198581880627707 0.9088422434611086 1.3702426291247745 1.477648024698125 1.2951115469051253 0.9833999061417177 0.5672813876773928 0.0018030381873223953 -0.6057539858683575 -1.002290753865912 -1.0442045426945785 -0.8365095008374093 -0.5724931385523435 -0.32033853706996207 -0.025588506364579513 0.3464882873613221 0.7606513823123404 1.1777997775464144 1.553371016170365 1.7067350437274156 1.3154930966177516 0.2720995837872097 -0.9109757770745357 -1.3169337868980038 -0.49112140680863847 0.9903580823916887 2.022718925557029 2.019184397013033 1.3167717681509254 0.6224316800319566 0.30138917806362525 0.2513768969315521 0.23610682997202342 0.14210121091298006 -0.023144118690770783 -0.19512397556144193 -0.2611546975997275 -0.11178187133203797 0.23506334165041098 0.6002583428043604 0.7962531706787377 0.8005712515321997 0.7315273400742095 0.6609898617314743 0.5112900285435762 0.16879433470794764 -0.3379233788715636 -0.824766009898071 -1.1112351570039716 -1.1481220846959794 -0.9848306635674572 -0.6731632689584458 -0.2528575220305482 0.2025188535260161 0.6005447537619902 0.9097503880407954 1.1786506069016522 1.4401622140590449 1.6112094929903686 1.522187506969533 1.0747585066692524 0.380726585212989 -0.27769680348604087 -0.6609375156134869 -0.749253418788802 -0.6865363584820957 -0.5588879482524448 -0.2818811741150308 0.2634447874678082 1.0206595579233237 1.739903181402237 2.1754791673655056 2.2699278716055535 2.142116827565523
1.945804512100051 1.7790498986170014 1.6892717160047896 1.6735437991158193 1.645723309185842 1.4860148514431815 1.2043444532112195 1.0156666120072384 1.1524632726706419 1.5839051495245582 1.9917761412430268 2.070832429743176 1.8306479870558152 1.571931645739347 1.5740816949110785 1.8299840909673457 2.091715470987713 2.1480307607896347 2.010747744176166 1.8117206113273587 1.5705435032281405 1.151012863283902 0.4678345015906864 -0.3328561618956343 -0.9529292495987426 -1.1693928338613602 -0.9503583768497796 -0.4102464801219926 0.25670313248690746 0.8073107992849158 1.017567997474754 0.8043573654025783 0.2924613160517185 -0.2647053729697387 -0.6582591312821454 -0.8330597100152566 -0.8307193200579155 -0.6560503173718597 -0.27214130355833077 0.2436644770795557 0.6428262407534077 0.7449712748834592 0.7103586440100551 0.8984065941600891 1.3863353886714778 1.7703296767141727 1.5606097033315658 0.6817323062266188 -0.523431544344784 -1.6636852473462302 -2.483106245286689 -2.750150021937342 -2.2626723305900813 -1.118783488305276 0.16001598490232433 0.9806190513814035 1.181139459600724 1.0928455155127728 1.0877814994337591 1.1618049248511813 1.0172206733597076 0.4656630755635492 -0.35214779923991785 -1.0872676777161108 -1.3976363186957754 -1.0846683636569703 -0.20394580776120755 0.880142966678341 1.6686881299015583 1.8849974168526515 1.6523677887687638 1.2769014219947958 0.899739531876023 0.4291273943190041 -0.21882137092716397 -0.9135816454133852 -1.3847324533327665 -1.454126433042069 -1.1457479437318314 -0.5968115037982414 0.06130178186949905 0.7178345169051766 1.2564635514211637 1.5793777594326082 1.6359824823568514 1.403883693795253 0.9010914354661039 0.2747679451188915 -0.18534592152186583 -0.2397108094123009 0.07594729300740136 0.4890770149446461 0.7700875211401033 0.9067706177009845 0.9879149591771984 1.0243770619410026 0.9683508445327379 0.8175584289708969 0.5706996256292087 0.15323687565097968
-0.42391606165051005 -0.8515166141781314 -0.7011450971135024 0.08734427210336164 1.0565340535467387 1.6723577329155213 1.7699566353712315 1.4415587304483524 0.6846365036420067 -0.5126132185057266 -1.7447749473236085 -2.2236813196005367 -1.5118594857118342 -0.09241979745096628 1.0562347093212472 1.4512170008243523 1.4544534529755448 1.5983928130049414 1.8377953369343603 1.695763356062841 0.9955824489070051 0.12598282388201626 -0.4439238634015821 -0.6322035577496092 -0.591735728699024 -0.31348556600990973 0.35012401949178956 1.300621879271533 2.081036365459288 2.2704690384818687 1.8860910133122049 1.2807179698962172 0.7080409753060739 0.1416315638200178 -0.44786223164122835 -0.7872935838646508 -0.45329008016353683 0.6369014338954586 2.0133746239860133 3.037952606111082 3.439450485058574 3.3561960734569722 2.912338833303228 1.967526942471923 0.3947876732292579 -1.4993501421344082 -2.981589853946847 -3.3632531443887057 -2.475623660979043 -0.7574460178569647 1.030184506076515 2.1946170379847483 2.396659810543953 1.7623708104884108 0.7863950100963382 0.01335864125484003 -0.3298633799758684 -0.4173606583355419 -0.516275642343827 -0.6365382781132122 -0.5512456594497864 -0.13068132416858474 0.4483432561075701 0.8552934256589003 0.8960226143018923 0.6100137306981998 0.15281499559075765 -0.32083961477603873 -0.6713850299037366 -0.7849310357325068 -0.6420743106311989 -0.34585098421933064 -0.02915200847641627 0.26237546818749047 0.5724330222421059 0.9328516792739449 1.2889076374414137 1.533420942524107 1.6102611747829152 1.5718540132595906 1.5133241833199842 1.4531871353564025 1.3168775201753637 1.0492290104921704 0.7019862316386545 0.38742220800451643 0.18010920660179683 0.09071601122263194 0.10562499048710444 0.21115035283694053 0.3800731272189283 0.5615173801990558 0.7005577310343412 0.7724639107335534 0.8027711399998201 0.8500935786079677 0.9479063453184106 1.0508877227043827 1.0615286048134591 0.9355400710204973
0.7450822403218509 0.6053352023678709 0.5417898402603313 0.4599380781651326 0.25975156803144517 -0.029290508485060606 -0.24503664068194703 -0.25003744031408626 -0.11104284673906913 -0.09280686688867822 -0.40275525063771833 -0.9186879878988785 -1.2455567625095483 -1.116177338366992 -0.6886420366248516 -0.3543944941102855 -0.2843364808352898 -0.2883540307403063 -0.12690637392936652 0.19339460092405875 0.518457995760593 0.8059222161977294 1.110080266941915 1.3471459687047396 1.2864939329073788 0.8654401994250743 0.36715555928639415 0.13627391832534563 0.17976891155896985 0.19973794279397 0.01122582085030349 -0.2262382241615916 -0.2470130341115213 -0.02042221487174089 0.26147644887948807 0.4706623022118994 0.6709626688663395 0.9435312402108249 1.2169285165953394 1.3595804372967681 1.3689221868543686 1.3575884511032439 1.3682092479304566 1.308958045168774 1.1081594937214945 0.8566004544017847 0.7251494382236727 0.7633956795688067 0.8457218262601964 0.8278480589790658 0.7063777117571006 0.5936749953641591 0.5685689460051462 0.598087745892098 0.6061842745207795 0.5804440715799521 0.5789126780542677 0.6335970542050301 0.6787768148369578 0.6101237511641708 0.4197582828831632 0.2372654168398427 0.19942373669970453 0.28800622072726534 0.3407075798370561 0.2383753300027594 0.04476558720154272 -0.07029256025909804 -0.02225641867294853 0.11195855678322392 0.1971694251078304 0.17289041107019593 0.07209997776735312 -0.04862867970022053 -0.1541267065308014 -0.215996990728712 -0.20130216393070985 -0.10722205551971425 0.005589817812566251 0.050894750558259 0.009559936740651186 -0.029422447176148673 0.05113248922938133 0.268664133072775 0.5079268969771662 0.6230583568930256 0.5644738965784906 0.4056433424206013 0.26373511778485015 0.20741153345518767 0.2318528333147229 0.299657825465022 0.3870801957891847 0.48784593974379986 0.5891074817885696 0.6684817728746323 0.7218291373018639 0.7730638956996422 0.8325600632598563 0.8573013759331576
0.7953922193387465 0.6839860259319939 0.6532996539965299 0.7811395211280252 0.9608172470897072 0.9687822998851472 0.6746823905860092 0.15337310228640916 -0.40840384722661704 -0.8623815725415717 -1.1347115898972013 -1.1794884769422846 -0.9811524361148193 -0.6055084579499931 -0.1871211666392557 0.16533676511745127 0.43391670171497226 0.655953059829381 0.8465469329844024 0.9655625347999072 0.9524327685793295 0.8018995991995549 0.6192906187721702 0.5755744036690981 0.760161839512816 1.0651062920434722 1.2378060844171754 1.0729033611863854 0.5780279662475216 -0.01928675506761608 -0.42381151145158713 -0.46562873375851893 -0.17951814435088817 0.2856397468209417 0.8094120187437203 1.3340064245051932 1.8003902818358215 2.1263277012780746 2.239709906418757 2.045899107995354 1.3798032650694045 0.18595817667696565 -1.1221807759416198 -1.6641366715708366 -0.7990672481387069 1.0623190242757043 2.5990753364537844 2.78175316369785 1.856775270147316 0.9361383187763272 0.730300710130567 1.018185864056133 1.2831566782104977 1.2997028345451964 0.8923228994009568 -0.24898208644084263 -1.9304324839544806 -3.024216737850967 -2.438582396580158 -0.5075687977073522 1.1796053465196 1.4461370605152524 0.5753332550482666 -0.4102417437996441 -1.0180654813044332 -1.492856197702354 -2.05687922938842 -2.433167296433385 -2.1973210786224926 -1.3118119054526434 -0.14083050271544034 0.9146490000659608 1.6117506227116634 1.790226641366693 1.379509559722056 0.5879199207424977 -0.10909345890542195 -0.38392731551313375 -0.3882630700316487 -0.4610405662831964 -0.5599986287281246 -0.26648014489897326 0.5963115341495461 1.626242801769031 2.2641081931185028 2.3577039328551543 2.144712724442314 1.8182972377102378 1.3231025800316372 0.5701841182941505 -0.3051080419467496 -0.9585326585603859 -1.0394209290843357 -0.3638148731879562 0.9728273590790805 2.5051649827188642 3.480864616984198 3.295128781127888 2.0282809451496595 0.481556841359883
-0.4703917104770614 -0.5718277767965853 -0.2157590055815092 0.0857881814667997 0.1403926895364682 0.08849748531382191 0.16404861861188755 0.4559083713654031 0.7937629430154775 0.8369461854230318 0.37460948886369566 -0.3608649232365087 -0.7364110680680143 -0.28678717741408005 0.6593956387182782 1.136506572761217 0.5750138336409882 -0.4366600594423846 -0.7344280171810977 0.07047810393475235 1.116244870133766 1.2797850995459172 0.43358443627714244 -0.4539936582442812 -0.38007009467786274 0.7028153509689791 1.9757593559473416 2.667833482568245 2.689410465790945 2.3865201621756156 1.9724631271951356 1.4155228951517682 0.6975898409949144 -0.10311162869787381 -0.9035202694030032 -1.5283529568914223 -1.6007151338247707 -0.8333310073637193 0.5125903376211823 1.682203586162735 2.04496094476459 1.5748560453345675 0.7205848611306684 -0.063038487770423 -0.593446306283118 -0.8606847864346459 -0.79361229033667 -0.24827704110090848 0.7362328634134291 1.7649349889661745 2.29581139971168 2.0606093727715082 1.2617813619770826 0.3642154196620849 -0.2727220711449309 -0.5542443134160435 -0.5211303387845299 -0.22103668417304514 0.18716595483535906 0.34019447381136747 -0.026749730281848415 -0.6193001596902591 -0.7043563900302604 0.07267234226115254 1.1081160847210743 1.3327599577477933 0.3394467897776034 -1.0890189108425539 -1.6419210173980356 -0.7013368012832739 1.019528680370749 2.049812401853611 1.5174103683140658 0.026407445461088877 -0.9270830483850683 -0.5047162931214337 0.6369852606881657 1.1878344995326424 0.7070044441030658 0.01851205429933712 0.06370103393214797 0.6829613967835523 0.8531555736626815 0.06634893583516015 -0.9174644479195986 -0.9361217944502854 0.15345940583760495 1.2736533650517954 1.3703001167186042 0.5503737237209185 -0.1854456781372841 -0.13003224671186825 0.4565644068964779 0.7843222751519111 0.4071547323193406 -0.39434395892230656 -0.9580642268818688 -0.849688699509591 -0.15648206101188003 0.7080471735624101
