-2.029677250749907e-05 -0.00019482485205921227 -0.0007833230468005957 -0.001522398833600159 -0.00048365023622740446 0.005204881208600011 0.015336210875001336 0.023946570270267767 0.02422596118628648 0.017209274314331575 0.012321039077018165 0.017194048434037483 0.029313335566066197 0.039862125548979874 0.04358754256643768 0.04194415339540282 0.03803250415428276 0.03260755697527871 0.026084622980847624 0.021162278242219425 0.02055619245036444 0.02329772970208344 0.026316032990617976 0.030064609487689534 0.03923482631194103 0.05450053045767247 0.0649640257566474 0.05501822698179421 0.022734613474200537 -0.01240038506001506 -0.026530473391697538 -0.01596488072743199 0.0008028368528160959 0.006229465480773776 0.002582816818234166 0.004169378302143367 0.01610726575914205 0.028197817456158 0.02966915773497959 0.023169348464782705 0.019965754743184464 0.02463668746161111 0.030290689354032 0.02942345696622787 0.02438412923518975 0.023421637115253507 0.028939210622125722 0.034804393525667915 0.03626358518308284 0.03816621100198127 0.04858842733578886 0.0643308632367702 0.06831006744384042 0.04700431644648612 0.009339435021240268 -0.01833654502016916 -0.01871524313145368 -0.0004646481156486479 0.014510297453627054 0.01632238807190777 0.013785405330584146 0.017935218778934656 0.026932703078253278 0.030965491076961487 0.0271726472462315 0.02332198971221476 0.02676900867305848 0.03491950906422044 0.03941665565037144 0.036989514657205055 0.032424077359213835 0.03144287678512639 0.03419997969497299 0.03695455617883411 0.03775537389425151 0.03819264961494366 0.040129067687633135 0.04329589094266136 0.04764815098746018 0.055623586507437615 0.06730734100654537 0.07360563572658911 0.06164517428375253 0.03151725461000348 0.0018492206363672705 -0.00825340339627884 0.00021841764064512532 0.010343666665890067 0.011862095637988668 0.011543994013225003 0.01989193540393287 0.03510825461071265 0.0456770010578228 0.04554738319204605 0.040674146067973434 0.03990497555454109 0.04389145492437463 0.04598353715555734 0.04214489047926015 0.036330848286625354
0.03512218170917477 0.03927877438265854 0.04313260261461275 0.04226592742758347 0.039091922388752066 0.039015749715778675 0.04322016403201449 0.048838028877574394 0.055247764019464664 0.0643234274451636 0.07210827266545053 0.06666719585627257 0.04137675157944681 0.007929386591512946 -0.011855566112381123 -0.008615673689921305 0.005859638838853932 0.014671354168362028 0.015239887824217754 0.018196536457913446 0.029791787078291977 0.04151569817331523 0.03958669666452122 0.02277521036522566 0.007178698745926273 0.010183298918045524 0.030309404917350284 0.04770953409783725 0.04669869887765056 0.033056229709575245 0.02483602185815087 0.029798751913346425 0.038411158352781354 0.038790272440381024 0.031979243534203436 0.028723182751158656 0.03454739629532622 0.043350477494904636 0.04667906020372433 0.04576039446758865 0.050169197260107865 0.06327679895652014 0.07252095181597071 0.06025830623475902 0.026000694911476805 -0.00791734101096051 -0.01812465259476239 -0.004670997005749233 0.011875616160519268 0.01590964038411854 0.012513091462495277 0.016608754483357056 0.03274636977367705 0.0506406155415819 0.05878223843881745 0.05734139467332756 0.05568327134398406 0.05986868834339816 0.0662627976057378 0.06772735551528533 0.0628473110739885 0.056539757817146125 0.05304359270040095 0.05156335473591422 0.04938097096689594 0.046844962637766975 0.04774994699322433 0.055611749105619994 0.06975033086877833 0.08336529997740363 0.0857247881542263 0.07013109708517559 0.04212361297484247 0.01714175595926144 0.007004845902032191 0.009909454014948948 0.015694746871074302 0.018628584960555562 0.021344468497636427 0.027363726117863515 0.034755914821536664 0.03921093042172832 0.0402152752809291 0.04103486370870056 0.04371834450434058 0.04695283652730224 0.0487693287741859 0.04892479274511242 0.04802740701180287 0.046269599049589806 0.043965111902780185 0.0417714898385838 0.039348515232272445 0.03570788288033403 0.032938668484950966 0.037119527204832886 0.05024308378758567 0.06136454913907268 0.053508939506067055 0.024308862024864472
-0.00587610517745291 -0.013793729416436222 0.0011414031237854773 0.018093449879671285 0.020683885884198686 0.014113213825974278 0.014441702605791012 0.027362325854547054 0.04314408079255508 0.05019853685865932 0.04783464320110827 0.04417225093925048 0.0452215773168063 0.04956159865023936 0.05289842329955937 0.05410066359208227 0.05498218734230589 0.05624771441314964 0.056325830644085854 0.05417702244259592 0.05179802032160111 0.05347380147530445 0.06184414540931378 0.07243385673597971 0.0720812797444603 0.048188464522270165 0.004456074095920169 -0.035223497727500885 -0.04488188011038976 -0.020383162924221432 0.016362476830150362 0.03715557538732394 0.031730899877342976 0.015498202456116831 0.015019106486575324 0.04335116007389012 0.08895602085114696 0.13223291303444837 0.1710522930896747 0.21962201990885583 0.2787135845300103 0.32055052003632273 0.31686756185890075 0.2765855242670606 0.24110428053031144 0.24088040566032093 0.26758771603172954 0.2919391413789467 0.2974344864196253 0.2886905440550586 0.2759340081772543 0.2651294776591366 0.2620220551669047 0.2730026659128028 0.2968575534731458 0.3225160384732135 0.3399568517486866 0.3498300811058909 0.35887369469570984 0.3685787984827604 0.37225396756536566 0.3633175391271263 0.34451218859932997 0.3273524003707814 0.3212693278674273 0.3234925300108451 0.3220494829436682 0.3100974269984263 0.29460022391449503 0.28797429335956537 0.2933965718575217 0.30250651276937734 0.3064932599470099 0.3048468784197937 0.30304887818566345 0.30522556772700127 0.3088431776140221 0.3042059924846253 0.28200788885495937 0.24577640394465514 0.21376450994082274 0.20207816341026513 0.2068801432571687 0.20938746810790723 0.19867430901955985 0.18326937422253697 0.1777802687764767 0.18365656169216227 0.18892592990739732 0.18503682879573308 0.17728598667971093 0.17603646299653802 0.18216218903580617 0.1864670438809024 0.18265777113944617 0.1755851765720546 0.17440199662340647 0.18138895169387484 0.19211158159141872 0.20528627182785394
0.2258388408702687 0.2536579915973014 0.27221101047303586 0.2564227757300501 0.19895646223648109 0.1285709545143272 0.09213335793265263 0.10523052119147817 0.12058549583239149 0.06421386757084857 -0.07946892506519448 -0.22772174892291402 -0.27172729823314723 -0.19499480060725036 -0.09535540369553858 -0.07538467788543989 -0.13342580491053493 -0.1851075011703252 -0.17455269891159925 -0.13019633676351156 -0.11047561082810606 -0.12722203955183553 -0.14243861063591734 -0.1253289797435701 -0.08925973527606623 -0.07139442267358664 -0.0904195357823228 -0.131032577961207 -0.16384333260578465 -0.17358051651908585 -0.1678338878722843 -0.16273469271985552 -0.16444905418740052 -0.16611109764544257 -0.16027911181914467 -0.14963179545715033 -0.14329490466394665 -0.14554306298305086 -0.151966208717946 -0.1562691932370287 -0.15728193237384266 -0.15816218876536778 -0.1612293544310448 -0.16572089408326007 -0.16988380883177825 -0.17343998890146092 -0.1773947471609321 -0.18199976733016976 -0.18524299012405632 -0.1829722375986966 -0.17120514226878109 -0.15145675144129572 -0.13561492987981408 -0.14101400956853744 -0.1737972436876324 -0.21758319534604054 -0.24557650014793464 -0.2463538684440079 -0.23284003176339554 -0.2236777967345513 -0.2216744400814425 -0.21605111366936766 -0.20201730778520846 -0.18961218460654472 -0.19118608135713452 -0.2058864877723505 -0.22115091798983652 -0.22749187336581275 -0.22719005241142284 -0.22772071716690684 -0.23046412368500607 -0.2292854591811583 -0.2190688861539676 -0.20170987828443002 -0.18293053733420084 -0.167806065705247 -0.16279266940690637 -0.17691443464926293 -0.2120498823787116 -0.2519770368147118 -0.27063164660794686 -0.25763276982981637 -0.23160384555163113 -0.22145666188212781 -0.23466926518563472 -0.24950035130170972 -0.24033518297927975 -0.20592051904360464 -0.16814851717566073 -0.1460005260919011 -0.13818951230673265 -0.13349596992934248 -0.1307291291660486 -0.13979288074863166 -0.16376667961902525 -0.18865472407039105 -0.19572577327988414 -0.18009089438818585 -0.15364577344177513 -0.13386452022915143
-0.1332693721222273 -0.15391705869466474 -0.1845952179716875 -0.2058994594759357 -0.20556763051094562 -0.18958723500777583 -0.17422549400373258 -0.1677617887688344 -0.16436262600705004 -0.15576224972156127 -0.14371997734683659 -0.1377991369761039 -0.14319318730825606 -0.15446023668651665 -0.16181360034861414 -0.16145618011640003 -0.1581237654765622 -0.15804772114549587 -0.16144156989660735 -0.1632162091678743 -0.15956503266916014 -0.15086858575840087 -0.1390658418292519 -0.12792204127851786 -0.12750804253132722 -0.15022638871207872 -0.19479770921567266 -0.23895564612463976 -0.25789039064122576 -0.24987040333767113 -0.23576864298884675 -0.23246510894104283 -0.235173631430274 -0.2299961346937859 -0.2162607621900159 -0.20772152730103724 -0.2135836331038765 -0.22680941491521175 -0.23398849583626846 -0.2314893778076388 -0.2272588700209933 -0.2288237004892429 -0.23448828157431273 -0.2371646065120192 -0.2327745781484645 -0.2220441653276174 -0.20750696988031803 -0.19444945522968493 -0.19339640595261193 -0.21305670331318674 -0.24692270910153655 -0.2734373892616458 -0.2760666399234345 -0.2603641798303814 -0.24554584745940586 -0.24134685515698828 -0.23994118076089171 -0.2309377457056099 -0.21688841385367946 -0.20906705042107698 -0.2118139809706112 -0.21763308620767227 -0.21815421062104512 -0.21462230220932532 -0.21443020965692666 -0.22021167750540505 -0.22641059396945443 -0.22580416545821697 -0.2156615970607826 -0.19796386329864477 -0.17896063732050074 -0.1700155833231768 -0.18200363859690535 -0.21280726203502204 -0.2439166942301948 -0.2561063969279123 -0.2479738233494725 -0.23435065256420176 -0.22724354794916704 -0.22407047696156931 -0.21622086595398282 -0.20353743614960507 -0.1947529771304654 -0.1950475943385255 -0.19887390233064944 -0.19718116867590432 -0.18833700572189438 -0.17887704719265443 -0.17519623114488708 -0.1778073388085231 -0.18322089776023776 -0.18763333495374973 -0.18771750158541234 -0.18216304365584426 -0.17637217140766498 -0.18240078985520883 -0.20744247914083502 -0.2419110144538699 -0.2653408387800278 -0.2670330449462331
-0.256192938031583 -0.24824164586490488 -0.24571689574141142 -0.23866482357634727 -0.22191552752238217 -0.2044905483129565 -0.19899726161471612 -0.20630951933771693 -0.21561792855807219 -0.2182512213253859 -0.21639393731417128 -0.21664704672619328 -0.21902591392384352 -0.21651133591765992 -0.20449012911159703 -0.1865490350047221 -0.17046420650611951 -0.1625118692617484 -0.16670564619922626 -0.18378582031580773 -0.20637949818833928 -0.21921559572431606 -0.21078491230243443 -0.18497054984906705 -0.15745604822593753 -0.14085001087014895 -0.13641840725379933 -0.1394574353889811 -0.1472708486573938 -0.1588467840780794 -0.17040703537968116 -0.1771660810887339 -0.180130876889713 -0.1865260871264039 -0.20113644307288323 -0.22039611180024613 -0.23707412748223178 -0.24742491846370887 -0.25176614633224526 -0.25231452585193453 -0.25335731597482253 -0.2592403880853827 -0.26839685025995297 -0.27279013167893246 -0.2671352800798834 -0.255973120762201 -0.24761709180722344 -0.24315299576971075 -0.2363383248363766 -0.2242571024868928 -0.2129790012473904 -0.2100201091378879 -0.21431074106418943 -0.21747799019184944 -0.2143660856184919 -0.2086738381889118 -0.20696019457244014 -0.20980383318302825 -0.2116716590054613 -0.20832259412275303 -0.2007015755813371 -0.1913005890947914 -0.1816624581247106 -0.1767218283598179 -0.18647168234221498 -0.21545383353053388 -0.2513660469057995 -0.272501993615384 -0.2699522441216999 -0.25685826249950006 -0.25142842645576824 -0.25525153350410545 -0.25456575475196225 -0.24108456297650874 -0.22391165149674883 -0.2178402543031157 -0.22498351657350885 -0.2334710638940018 -0.23265445815298363 -0.2239764069605373 -0.21577517217249642 -0.21197348231229296 -0.20889203561012695 -0.2010441154718719 -0.18799667484228155 -0.1771209192332476 -0.17988211404951127 -0.20135359653211954 -0.23143060222156397 -0.25079446666208555 -0.24936999770719706 -0.2361527777252068 -0.2272716948972562 -0.2270155625173833 -0.2254913908060254 -0.21398665709356973 -0.19687570210507366 -0.18605123832144763 -0.18730557327052763 -0.19571061380087293
-0.20279006293285806 -0.20465855515309406 -0.20300295448925504 -0.20089816478025577 -0.1988976973298182 -0.19430598586876463 -0.18490151824096013 -0.17532672183724082 -0.17776415393649866 -0.20037450509983 -0.23372307662156144 -0.25488660553616005 -0.24973353697977535 -0.22783309574063154 -0.2107445918352635 -0.2079893768939724 -0.21014586573238797 -0.20495250841413748 -0.1932684468000657 -0.18543437753977024 -0.186268541536923 -0.18959162743998614 -0.18728343595734154 -0.1791246664499348 -0.17172048003026888 -0.1695903725140115 -0.16900961459902925 -0.16123655045971627 -0.1432554371592151 -0.1255406920097302 -0.12522897460518337 -0.14790869018125943 -0.17880417150590938 -0.19691432544808388 -0.1966850504960306 -0.19047195095957062 -0.1900827859978654 -0.19296073545872827 -0.1898489712574274 -0.1801665377308684 -0.17297493119555377 -0.17429068976346473 -0.17999476618710314 -0.1829417379384323 -0.18247224359862432 -0.18383084335738423 -0.19046041135750535 -0.19933815364804447 -0.20284717453041132 -0.1949199046158503 -0.17874413969495245 -0.16968745303993293 -0.18512450092486038 -0.2257664407756309 -0.2691672837894766 -0.2874996302798448 -0.2726282301483993 -0.2407504378958065 -0.21359636935177134 -0.20063010189536784 -0.20008961044985932 -0.20887316051407925 -0.22410719010625485 -0.2388428960819604 -0.24509722529411793 -0.24291905277261122 -0.24141013587778556 -0.24847334323532952 -0.26228457785708414 -0.27409461845961614 -0.2766343665375455 -0.2688353769979381 -0.25643800486534407 -0.25057652987831586 -0.26112948093998595 -0.2859744425130119 -0.309136854299541 -0.31545481033192185 -0.30656820731523865 -0.2971688252327267 -0.2955985341906121 -0.2945593624673812 -0.28354837994002474 -0.26473764270834466 -0.25091295596262564 -0.2499676733765707 -0.2571718661380755 -0.26311383686772394 -0.26439709208097145 -0.26412373729142136 -0.26513401580068485 -0.2666284945984406 -0.2668548827759968 -0.2658321341549895 -0.26425083187978515 -0.2616321643152441 -0.2572779070722725 -0.251787548928128 -0.2453951570930918 -0.23615289335798378
-0.2242334843031791 -0.21815767040470016 -0.22978094248006967 -0.25860597528184803 -0.28651345654598204 -0.294935797476584 -0.28480350354043643 -0.2730315720443607 -0.27063201743040916 -0.27164300902781874 -0.26510482998060464 -0.2509424448006932 -0.23879692727152152 -0.23472011892164513 -0.23538642479329064 -0.23556058056000193 -0.23575390381687525 -0.23940331215045435 -0.24559105686409938 -0.24896621183321935 -0.24666003715985457 -0.24165360670945216 -0.2379126103903054 -0.2344503602372188 -0.22643804241908605 -0.21247278517530224 -0.20015895201884906 -0.2026801789094759 -0.22663996945826084 -0.2623142435632577 -0.2891343287694065 -0.29369365264270375 -0.28117722967421854 -0.2672607636932678 -0.2606447863063627 -0.2567198028797488 -0.24757564756683273 -0.23360514971440338 -0.22253426662625234 -0.21937703802796354 -0.22102000228630267 -0.22063920323360198 -0.2143203131124343 -0.20211836700631344 -0.1854347689121582 -0.16652402071971661 -0.1496765641907273 -0.13884501499730528 -0.13182131957863585 -0.11907460460595967 -0.09338475697065625 -0.06313337653034114 -0.05192136403330165 -0.07787619192786267 -0.13229026535595922 -0.18475976883772438 -0.2122771296845544 -0.21810447003966285 -0.21867523024395066 -0.21904179550411662 -0.21058050140516557 -0.1907604568498144 -0.17342676422238557 -0.17342896202552793 -0.18720355182861992 -0.19663438163573768 -0.1910487727538099 -0.17841103105496814 -0.17289323623030048 -0.17715615214143868 -0.18178075069046656 -0.17952792844001736 -0.17434421042227594 -0.1753722052848161 -0.1855499962781649 -0.19739498388753882 -0.198812810528094 -0.18415448256875697 -0.1609575013583269 -0.14310703700094432 -0.136078005269578 -0.1342794985746644 -0.13542079235605312 -0.1487367744897269 -0.18089644924050863 -0.21995108795475685 -0.24439101363574303 -0.247109826037782 -0.24075866084680436 -0.23803107956480912 -0.23604264135033984 -0.2256949615657225 -0.2097177714208262 -0.20197451938458155 -0.20903443593375695 -0.22023360949316345 -0.22018552428353183 -0.20748496275908873 -0.19626071474273163 -0.19997116045230498
-0.21776259436591774 -0.23770767004875584 -0.24984002958182325 -0.2530148629048151 -0.2505908091499972 -0.2437930633134843 -0.23252248984176216 -0.22206400298603424 -0.2240344305533667 -0.2453197939190998 -0.27671932606027316 -0.29857266011145933 -0.30019645492873964 -0.2895905942309804 -0.2810218070395191 -0.27720940406076533 -0.26920054743394284 -0.25238632611659373 -0.23597098140942638 -0.2332142303255703 -0.24572154890095455 -0.2621381827391421 -0.2720890967018279 -0.277288537609611 -0.2871042598939998 -0.30569659681438793 -0.3261162210094573 -0.33615635744119093 -0.3275226050687692 -0.2995332447096707 -0.2581277795803121 -0.2153200775079201 -0.18741336858129767 -0.186089889066704 -0.20722490757873463 -0.23258520964011675 -0.24699298371122436 -0.25158529578324385 -0.2571344074773837 -0.26797299809338426 -0.2777496656830746 -0.2789463996320237 -0.27037123815689507 -0.2550816844710148 -0.23686523485125155 -0.22110401377607286 -0.21436700507050377 -0.21872657273089258 -0.22798170158888217 -0.2332344697807886 -0.2326693151552764 -0.23344850865390768 -0.24273837198420553 -0.2582648600080359 -0.2693434287180322 -0.26721627293934236 -0.25425294293821776 -0.2436840447756595 -0.24946542152424667 -0.27364605196218506 -0.3029913684374447 -0.32047769525316167 -0.3212340127461074 -0.31526170328822006 -0.31393635649953217 -0.317048229993413 -0.3157430188146327 -0.30596258749605104 -0.29446111920051143 -0.2906581131080729 -0.2959055679317722 -0.3030420619957498 -0.3045628756264586 -0.29869301872333937 -0.2885399255245009 -0.2782770634935099 -0.27061598773347495 -0.26574595278593266 -0.26118561840397303 -0.2532413003282183 -0.2398389741914552 -0.22310880852455997 -0.21024779241341948 -0.210757558940722 -0.22899139555071799 -0.25726181030248735 -0.2789852358652047 -0.2820239416745954 -0.2685703789391338 -0.2505605874921025 -0.23717057744918751 -0.22921819293009654 -0.22409931402395217 -0.22176184385547681 -0.22405953529552905 -0.23047820321780613 -0.2372079545798962 -0.24084701340461417 -0.24181414938370957 -0.2431846706202291
-0.24646803326316516 -0.2495524317163027 -0.2490099526525938 -0.24315636161492427 -0.23234379976314165 -0.21889607131879418 -0.20936697389355666 -0.21371790433919163 -0.2359359261519421 -0.2651591726687784 -0.282396612416732 -0.27912145290739937 -0.2653034362877524 -0.25617195303193885 -0.25473939835112225 -0.2518297368474543 -0.24125465713042454 -0.22875763279407277 -0.22378508381671205 -0.2265767961104141 -0.22794795456581896 -0.22118447930567578 -0.21009024448545596 -0.20358833295589218 -0.20472028323897265 -0.2073379562470327 -0.20280110920229158 -0.18828308482704553 -0.16977615244827032 -0.1592291896562462 -0.16697515200015053 -0.19227490619879167 -0.2202794233342063 -0.23200660563046802 -0.21964957822313294 -0.19074708691139203 -0.15742307748930515 -0.12560912678547834 -0.09705625571615366 -0.07689607295670431 -0.07160701897586853 -0.07899656529953902 -0.08761843838523468 -0.09104038455428047 -0.09753686704685756 -0.11769655669125466 -0.1446296766058328 -0.15741737317048643 -0.14816799586115806 -0.1362442569309347 -0.14708565072729213 -0.1825057841197799 -0.22220535287652374 -0.25162187475341374 -0.27492039877182584 -0.2974536903926818 -0.30901799354138126 -0.2962986980873087 -0.2662203425524269 -0.243394284096486 -0.2422611979225524 -0.2516283156827663 -0.25198222262843 -0.2409131044636868 -0.2333934356112903 -0.23988067751767453 -0.2531124143240231 -0.25882108585691516 -0.25328271906743893 -0.24545261512596042 -0.2445264975575528 -0.2505341021418535 -0.2573948617296876 -0.26103358754163963 -0.26144473717713984 -0.2580658625020704 -0.24790362942855648 -0.23228805995213875 -0.2232658369309303 -0.23558798859642427 -0.26871159929212074 -0.3022425377268489 -0.3151698889216564 -0.30716312617612107 -0.2955001092585674 -0.2928468987098233 -0.294928330144933 -0.29119010654607375 -0.28089186126457216 -0.273532850566278 -0.27596594022492604 -0.2842718905815469 -0.2890731481210086 -0.28585206954400777 -0.2784113520508435 -0.27350707217532766 -0.273776056102556 -0.27584373481620583 -0.27380693239049003 -0.2634688448539422
-0.24484291513555595 -0.22431497856305932 -0.21465360524657415 -0.22681221443384222 -0.25670374644762256 -0.28375215874231874 -0.28912932397083496 -0.27478679132708805 -0.2592287951693868 -0.2549431605733964 -0.2560714269914812 -0.25000795917288815 -0.23519925897330618 -0.22226047153544803 -0.21975681994495125 -0.22455814771141341 -0.22761075663719518 -0.22542055883176337 -0.22251437493362056 -0.22373177402646016 -0.22762856093112138 -0.22887556398098205 -0.22502777938663487 -0.21808867188877298 -0.2098398563012572 -0.20000180517992117 -0.19205339681697514 -0.19674868584335697 -0.222133475610277 -0.25926580965060464 -0.28546264513277125 -0.28655424218658454 -0.2716283929220688 -0.26083199074612456 -0.2619603239940456 -0.26548429764744125 -0.26151301820886336 -0.2539348504417503 -0.25430142893688745 -0.2664867269173392 -0.28267230419734957 -0.29335622447737875 -0.2967991581763609 -0.2974621389437024 -0.2983660611900822 -0.2978800680328144 -0.292897666498214 -0.2814787211268169 -0.26130257362645876 -0.2302756493103385 -0.1944538992990694 -0.17298783921658759 -0.18484304555203515 -0.2250497357766803 -0.2610965233865017 -0.262425854871109 -0.2325863290772912 -0.20414502663262513 -0.20035578853939426 -0.20996433389238978 -0.20527392212452636 -0.1782737771560974 -0.14797843584354725 -0.1326551274256697 -0.1272448150568393 -0.11522432768173718 -0.09432215008255257 -0.07943703668316117 -0.08231988532404991 -0.09822079532789071 -0.11338532589561241 -0.11710206419782741 -0.10447367336984185 -0.07766241842078506 -0.05157205223305799 -0.05066561541665191 -0.08896238108592264 -0.15309628936335912 -0.2113180659043588 -0.23993485639517775 -0.2386388103539834 -0.22321370230173068 -0.20933759009591207 -0.20354439636197222 -0.20408336248000283 -0.20615816799444175 -0.20640640412571587 -0.20406191261024356 -0.19925744818826638 -0.19169376957936138 -0.18185129158569555 -0.17250257291035295 -0.16696469884980536 -0.1652797251311455 -0.16386554699336905 -0.16049589084403604 -0.15837043446467414 -0.16272719598315943 -0.17342669662562107 -0.18344108917703256
-0.18576632823612968 -0.1799434579425686 -0.17076622014459147 -0.16349841583132446 -0.16314388794818785 -0.17509044302019283 -0.20004754159618302 -0.2280677375459336 -0.24405000226023274 -0.24271597981372145 -0.23434580581539824 -0.23191932505860724 -0.2353872251113851 -0.23353547563634064 -0.22047976754378334 -0.20464757169169934 -0.19899247443971116 -0.2059029502829047 -0.215716916051469 -0.2191431699944324 -0.2171439529613135 -0.2170844660148858 -0.2220074407398869 -0.227211115308049 -0.227080461427346 -0.22151340146932985 -0.21342224118991424 -0.20280333604854978 -0.1882365543017044 -0.174683082354325 -0.1740751851863972 -0.1928636452513523 -0.22071927102952296 -0.23758807370647628 -0.23381400003776998 -0.21940542553773856 -0.21093443603460676 -0.21271635777897707 -0.21513063394068485 -0.20959086281752232 -0.19906544603161827 -0.1918681503898797 -0.189944223962513 -0.18811295007797546 -0.18312582179900067 -0.178122061591361 -0.17682088522659162 -0.1772424195871826 -0.1740400952090048 -0.16472801452109206 -0.1502388829275965 -0.1311234041140004 -0.1085503304759232 -0.08960794989973596 -0.0848699715842871 -0.09568386479657412 -0.10793852479150767 -0.10505735626713107 -0.08634328524879434 -0.06712284392251931 -0.060943125005646546 -0.06716642855599235 -0.07750204933983107 -0.08917975395501516 -0.10701259370282204 -0.13457636447757476 -0.16826518061208584 -0.2012895684363773 -0.2309308851188341 -0.25972200421754993 -0.2901059307193261 -0.31983557267506607 -0.34321898304917964 -0.3554728791010952 -0.3552410215710408 -0.3460283193142111 -0.33866241808705416 -0.34884423124499675 -0.3836478369121238 -0.4282945784732209 -0.4538575702599733 -0.4439055701251615 -0.4101892508984559 -0.3777799940240992 -0.3584242829956618 -0.34427744326826076 -0.32514470258915196 -0.3028736807271634 -0.28531008498491567 -0.2723662552948028 -0.25534174078043453 -0.22957417669984967 -0.2021868506353961 -0.18482403079928744 -0.18119475505709945 -0.18388625711290593 -0.18160953866688187 -0.16712795158681523 -0.14029299347678853 -0.10879526291378855
-0.08669761772678007 -0.08561162774047919 -0.10214918555121681 -0.1175444374832492 -0.11544001546456024 -0.0990282201265304 -0.08583281816672991 -0.08609235516195275 -0.09203476763496436 -0.09053014680810695 -0.08094343866887058 -0.07488654926026599 -0.08014572895869049 -0.0911845166438734 -0.09744886109218907 -0.09652864310131183 -0.09529446636933192 -0.10020133476094786 -0.11057660846799379 -0.12098967569075571 -0.12624980183875067 -0.12350450251054279 -0.11413168349953107 -0.10660280975395528 -0.11328393869424641 -0.1383228993856871 -0.16947197966888533 -0.18775075273254704 -0.18675238497344268 -0.178067677364837 -0.17576541772382653 -0.18014293665013992 -0.18095297875752805 -0.17355107659224414 -0.16539888550054335 -0.1654972531979945 -0.1725674754026998 -0.17774685363087311 -0.176852871436402 -0.17524532559241224 -0.17970077751148048 -0.18914788591839052 -0.19628330518888162 -0.19659187387170715 -0.19200906531919643 -0.18546173556557413 -0.17665104132499673 -0.1674548863034732 -0.16796143907386607 -0.18839709682891664 -0.22284979215485373 -0.24906325918891586 -0.2508257250768518 -0.2360503893572096 -0.22569306489088975 -0.22753984802014013 -0.22934819481147095 -0.2184298963207252 -0.19947978134116948 -0.18788808541773336 -0.19018760790618514 -0.19773496285651654 -0.19910294313259613 -0.19321367592428437 -0.18796443594092488 -0.18907508811933071 -0.19406983741044914 -0.1969760381492375 -0.1951857303051646 -0.189202349000467 -0.17851068720497418 -0.1636365061308943 -0.1530441621710587 -0.16050196774749328 -0.18925411560412833 -0.22278054582478113 -0.23922017919100746 -0.2345410794220954 -0.2244992968877068 -0.22286986049339666 -0.22532599601671205 -0.21913660989004205 -0.20294357024995124 -0.18926573423784843 -0.18833157907930315 -0.19623823187351946 -0.20144722043062444 -0.19860879040323148 -0.19250276738787445 -0.19056923469220682 -0.19523776359860454 -0.20337139155837936 -0.21016032287777772 -0.2119747407876516 -0.20663344293266592 -0.19337282472782988 -0.175035057497896 -0.16093581387685962 -0.16395098648467388 -0.189130790866267
-0.22444927575615428 -0.2481244009347627 -0.24867536694543174 -0.23520659019984885 -0.2252037392015852 -0.22502411963106025 -0.22643601025044052 -0.2205988002074692 -0.20964390164072047 -0.20241166086600718 -0.2027117822931388 -0.20596534276568682 -0.20668055221729464 -0.2053463277245616 -0.2061464663421818 -0.21003363847597398 -0.21310823863594783 -0.21205849564097917 -0.20870555322954396 -0.2072808451187369 -0.20794642180652906 -0.2051294551524256 -0.19401766736687212 -0.17920935065658739 -0.17482387825742327 -0.1918477472190754 -0.22400106369532674 -0.25016107124155157 -0.2544832492286264 -0.24199689422784493 -0.2305968024970537 -0.22946133535303262 -0.23074004255187544 -0.2231046459185437 -0.20764047297466487 -0.19599825574958385 -0.19577722517658516 -0.2030983329775082 -0.20952485145684926 -0.21161996595243593 -0.21183525179335577 -0.21323998189888843 -0.21629570915710966 -0.21967679528979245 -0.22197741726537057 -0.22255336614233556 -0.2215894765115313 -0.2190560786076373 -0.2135582387136085 -0.20445837449372575 -0.19699848080080773 -0.20227955366804173 -0.22655080764583044 -0.26021501423614296 -0.2832250904857352 -0.2845054861170063 -0.27244312958451483 -0.26302074807877207 -0.260963949061939 -0.2575341513597967 -0.24549206516681996 -0.22985655544836528 -0.2210390587877785 -0.22128614274086914 -0.22268618951296765 -0.21802717455473095 -0.20945870642156314 -0.20471070641721728 -0.2072294697062571 -0.21268079809060894 -0.21462772095720964 -0.21143118784861048 -0.2068407143445034 -0.2047580242744211 -0.20412131903107836 -0.1993167323972273 -0.18704866210035925 -0.1736875392608018 -0.1729379869116807 -0.19187394890251788 -0.21997681706303418 -0.23727970015579986 -0.23487719796259618 -0.22287234627461525 -0.21590744480841162 -0.21584802315129525 -0.21340740310493778 -0.20349499709742613 -0.1921656827334425 -0.18765153458185246 -0.18984730895105215 -0.19185860446629774 -0.1892905863614399 -0.18444901191404536 -0.181975768006901 -0.18332297005164114 -0.18621717658095194 -0.18767531533360465 -0.18655134208640603 -0.18412417203127482
-0.18284541982316665 -0.1835511045768352 -0.1831068822951071 -0.17626210820725471 -0.16266973661317893 -0.15229240417146522 -0.15948418782093546 -0.18762257312432729 -0.2216158453307132 -0.2406630631024562 -0.23873173194270342 -0.22842693778224224 -0.2241126838956712 -0.22611472600462879 -0.22465912406311242 -0.21554819787624624 -0.20605449018542912 -0.20504985004784612 -0.21210850549384422 -0.2190879681332369 -0.22007756219789407 -0.2167029550214966 -0.21420096875416028 -0.21501106068064355 -0.21720476150047532 -0.2176798632937656 -0.21529921780224331 -0.21109803024723578 -0.2066772273496439 -0.20268729964789844 -0.19788103931209083 -0.18987548429711032 -0.17939410474738385 -0.17431128932923529 -0.18489823785706927 -0.21116499877279998 -0.23815101763792496 -0.24911822154985874 -0.2424556058441404 -0.2310399862184157 -0.22559888207187478 -0.22408392257532148 -0.21878440501879062 -0.2086704053265872 -0.20034082993805089 -0.1988923594343615 -0.20237840247660263 -0.2058057971785524 -0.20740878544031766 -0.20896149089676258 -0.2113357323393258 -0.2124145208084816 -0.21010384368592636 -0.2057711481602161 -0.20314531113481993 -0.2040067539894502 -0.20573343638626368 -0.20305993564910724 -0.19257185338983485 -0.1773433314234036 -0.1680111563554428 -0.17611670569291998 -0.20236808269750875 -0.23244931184938142 -0.2487972354945897 -0.2472371748060774 -0.23873614880317204 -0.23440481374463448 -0.2331519430288477 -0.22662492909367957 -0.21279219754529802 -0.19979536195508768 -0.19628622128314352 -0.20161805827927182 -0.20758812186896033 -0.20813240441554223 -0.20481714264606615 -0.2028806570105741 -0.20429414303590474 -0.20648028719648134 -0.20698771961532075 -0.20709264504607552 -0.2096306444291972 -0.2141688669846931 -0.2158052511005392 -0.2095405698574974 -0.19639600434386967 -0.18552223428573983 -0.18864170262408533 -0.20924779783862282 -0.23662091831575965 -0.25359658836364973 -0.2523507261997323 -0.24066294794907472 -0.2310057532516463 -0.22624573712126791 -0.2196797118072529 -0.2074783786705084 -0.19550569351561345 -0.19174230768845632
-0.19585456840140028 -0.20017257223584253 -0.19956726903249983 -0.1965068849707799 -0.1961233312857433 -0.19962544663520154 -0.2041747087572237 -0.20714166025424857 -0.20838479913892624 -0.2090885441249735 -0.2098581341015167 -0.20949564205950158 -0.20488173635723564 -0.19410294577238 -0.182318867724392 -0.1821176794721651 -0.20200112196832515 -0.23348113726316316 -0.2554103843192457 -0.25466366080158354 -0.23896536471006857 -0.2259946137143136 -0.22330157387886518 -0.22367493319745596 -0.21820907131423672 -0.20755400856983977 -0.198520826150713 -0.1942767032755601 -0.19188148845061156 -0.1878530883876871 -0.18252443807250268 -0.17863547731111185 -0.17796517635725043 -0.18015411952270674 -0.1833932187684059 -0.18540674818997566 -0.1848363857207094 -0.18265728808756374 -0.1812746593393475 -0.18099076833351083 -0.17888989778602207 -0.17428356938421233 -0.17447699210296805 -0.18958102030153956 -0.21868926780367556 -0.24581512123869495 -0.2549497762799511 -0.2472645975928761 -0.2381032390952268 -0.23752811205837024 -0.23987008994175743 -0.23473863881719734 -0.22293539041894095 -0.21560181827506628 -0.2191599273158544 -0.22739045892472004 -0.23036703451475618 -0.22663541097095186 -0.22280894082639324 -0.2236242763549387 -0.22688174013937282 -0.22809268300379407 -0.22632814101926058 -0.22375644784584142 -0.22112246589255352 -0.2154958162913365 -0.20337513447455308 -0.1872824590482108 -0.17878336303646195 -0.19042739801740036 -0.221125484004534 -0.2526829405590278 -0.26602556025217905 -0.26000340203881167 -0.2498477704392658 -0.24783168547594345 -0.2508509416926002 -0.24855607907764415 -0.23850261368557668 -0.22838004973257192 -0.22501786896303544 -0.22652684400917145 -0.22684314189907848 -0.22436788841817973 -0.22290691731178347 -0.22540260239153975 -0.22994701417249605 -0.23264638453691885 -0.2324962825982583 -0.2320165717316025 -0.23346871882433115 -0.23511032139594337 -0.23128101951962193 -0.21750473917704444 -0.19816005994426902 -0.18833435287075312 -0.2020260467309923 -0.23493845778119754 -0.263868196582548 -0.26878807215145983
-0.25283146012799507 -0.23520096021930928 -0.22716354667063376 -0.22250476868507274 -0.21172256535330117 -0.19724660307956532 -0.1892426764974658 -0.1906261341685673 -0.193261562418243 -0.1893835931108489 -0.18136782566421356 -0.17735668813516495 -0.18041970368479107 -0.1858777101858321 -0.1883501486398711 -0.18768707796264772 -0.18696991295039864 -0.18744916592973102 -0.187774211541901 -0.18669262501080475 -0.1834160782096822 -0.1762131790186814 -0.16569526688244013 -0.16069975456320718 -0.17413246852305572 -0.20720981238449016 -0.24198806292774522 -0.25698647720716306 -0.24957635113722892 -0.2368404022138486 -0.2340669026859585 -0.23881122659890408 -0.2388683984262704 -0.23026029058032665 -0.2212655411491932 -0.22042315724175324 -0.22672162869228124 -0.233300810638431 -0.23664556099011913 -0.23885047005314652 -0.2425474271951296 -0.24685095162918363 -0.24871615477699718 -0.24661563541802806 -0.24206772235291285 -0.23811455650630067 -0.23684464647901451 -0.23801757162776188 -0.23894158194317883 -0.23511739700316228 -0.222953634130952 -0.20527215473828467 -0.19390162096865352 -0.20135366936059776 -0.22630992543438339 -0.251067379884379 -0.25825916028388884 -0.24835889098747252 -0.2361190747511247 -0.23109315169241407 -0.22780587929795404 -0.21685291336270415 -0.19989829907370987 -0.18798834324239466 -0.18681511088379302 -0.18984647172330246 -0.18781779868176576 -0.18041735108924695 -0.17484246113044485 -0.17536574620665663 -0.17904463033284637 -0.18166251303766864 -0.18364827821045443 -0.18806148220406874 -0.19516428829427268 -0.20176159200951468 -0.2053987956898926 -0.20695311195822802 -0.2084545244969432 -0.20985233614011325 -0.20924826878711367 -0.20559376341268532 -0.19926808449545405 -0.19010083711189182 -0.17830508878406365 -0.16973608961665995 -0.17612270380261869 -0.2034199577186444 -0.24017737178828358 -0.26426878213096805 -0.26418269638752456 -0.24954010311280206 -0.237800174709469 -0.23466765779897852 -0.23218007328267137 -0.2235090393962442 -0.2128907631314281 -0.20889215932342675 -0.21235365911671292 -0.21536437388274401
-0.21139072765270675 -0.20286239606705475 -0.19735089771421796 -0.19818407927097173 -0.2011940774437243 -0.2006177293352577 -0.1959963557657715 -0.19187593611272208 -0.19182536509389267 -0.19468187860478353 -0.19676890934960894 -0.19603180827705155 -0.19300496734535283 -0.18902154026281387 -0.18510117043022042 -0.1821528908261968 -0.18078601449414264 -0.1807335604385281 -0.18087743586471447 -0.17915920568606367 -0.17276318276712554 -0.16189438172560616 -0.15537276741771033 -0.16735991055485924 -0.20185860180228737 -0.24233471422424044 -0.26439366939354786 -0.26040753810211426 -0.24601226825815448 -0.24003878589172578 -0.2435576685280367 -0.24347955184459497 -0.23304991612108458 -0.22111839655181176 -0.21969638570929934 -0.22834235301414263 -0.23558847974965888 -0.2334238811731985 -0.22548909506340548 -0.22078656417838832 -0.2231887913614429 -0.2290142022811499 -0.23274675210213241 -0.23256510676582226 -0.23035064724089088 -0.228136021998786 -0.2258754190388446 -0.22252507446844505 -0.21807078188803106 -0.21310164812998422 -0.2060730059659488 -0.1931339082170614 -0.17429654616946494 -0.15991615900635478 -0.16508294794157963 -0.19233866716690687 -0.2233503187402198 -0.23499475783401555 -0.22383279048471583 -0.20855037689537304 -0.2069952291515009 -0.21705306369454838 -0.2237502090737503 -0.21992075981823309 -0.21311230908059753 -0.21322508911515614 -0.2201703954744044 -0.22677513692635565 -0.22973449701551174 -0.232668048237226 -0.23904461485555042 -0.2467902059320369 -0.2518042276620305 -0.2537809330396144 -0.2555573815057076 -0.25799085688776735 -0.2585532680485755 -0.2552182731324669 -0.2492778367862702 -0.2426394188118215 -0.2331901406206286 -0.2157983883542449 -0.1909713690179701 -0.1715791912925425 -0.1748171775070437 -0.20296412980870537 -0.23579696669064013 -0.24857179051043082 -0.23700937670637331 -0.21899310175304806 -0.2114101280035335 -0.21177904251823879 -0.2060384510109021 -0.1892077606356423 -0.17149962275095723 -0.16443796157656168 -0.1671276921458744 -0.16944229656407933 -0.16546739501307614 -0.1594620312775879
-0.15881601295530984 -0.16457758367911465 -0.17081173714466721 -0.17212087359019596 -0.16969025013476402 -0.16921428695293453 -0.1739420995114245 -0.18079783734720337 -0.18266694892853033 -0.1740760119259166 -0.15731620502594232 -0.14537750642876537 -0.1549408291828312 -0.18984493363726926 -0.23197910304306915 -0.2553526402109584 -0.2515092559806128 -0.23651904425736683 -0.23080531027635756 -0.23686319884993154 -0.24100074498964213 -0.23361720867229455 -0.2210533182896764 -0.21620172015903794 -0.22256236169465612 -0.2318215149377671 -0.2354922500711439 -0.23435104878946772 -0.23490789879048593 -0.23966459941219823 -0.2444589229070646 -0.2451484149468393 -0.24317285005225237 -0.24198036387257105 -0.23965551971238258 -0.2287920374131925 -0.20580279631212578 -0.17990077182380687 -0.16975988288601265 -0.1869089592944332 -0.22150734765274008 -0.24881972088161397 -0.2528348422831427 -0.2406881673177868 -0.2309334257746658 -0.23118510290557248 -0.2327147578393559 -0.22571062600903916 -0.21296306128172307 -0.20520168728470584 -0.2069892522293793 -0.21259442456043548 -0.2155227261770202 -0.21703338018083315 -0.2221507879592721 -0.23004988982535154 -0.2331608997017622 -0.22644420331348683 -0.21408598879266855 -0.20454232195274388 -0.19995290985675768 -0.19293222059080148 -0.1759397148958944 -0.15436154095927557 -0.14703947967455452 -0.16837821350228854 -0.2094921533809912 -0.2431343159593479 -0.2505151037279078 -0.23860635947792797 -0.22734631690779128 -0.22506020369722254 -0.2234335137114589 -0.21430368391998542 -0.20245834802029514 -0.19840277073953053 -0.2039087418467233 -0.21039090323164797 -0.21034712142504686 -0.20552669250810954 -0.2025901217516996 -0.20423339200664944 -0.2073762115416266 -0.20858262939206246 -0.20822951806178272 -0.2088367954645021 -0.21090011386390495 -0.2109954661417009 -0.20357045076229563 -0.18621690361531051 -0.1662428968856367 -0.16052621814707105 -0.18176451731900117 -0.22157386737352622 -0.25325414608715796 -0.257366607372785 -0.24132188853838166 -0.22788203705059862 -0.22724920119839032 -0.2284361466561058
-0.21831097848145956 -0.20038156215093028 -0.1892915682807105 -0.1915250332115171 -0.19894497747987133 -0.2012133674898737 -0.19812221493939464 -0.1966287639209387 -0.1999837780929001 -0.20460743274503404 -0.20648743501970818 -0.2061639093719817 -0.2063175362352355 -0.20756212531450888 -0.2087139951876405 -0.20896658449679387 -0.20680309021806242 -0.19890878561515035 -0.1858535246872028 -0.1789021770517081 -0.19317370604389467 -0.22893097624421294 -0.2651867285049101 -0.27901125955878975 -0.2690381524983761 -0.25375878965442134 -0.24804447747371652 -0.24856967092461552 -0.24384811916001814 -0.23165053908040947 -0.22075994833269058 -0.21835112861210798 -0.22242370819525376 -0.22824855356985266 -0.23631847748768087 -0.2475903036018443 -0.2534215999262038 -0.2405700876471728 -0.21055771705321324 -0.1853595615315075 -0.18494021690438806 -0.2028866484198437 -0.21295288329815246 -0.19991150697824356 -0.17777741791967702 -0.1748249693618485 -0.20302260021493995 -0.24527727453726328 -0.27327882517562113 -0.2752885289759686 -0.2633780851808712 -0.25483432111700627 -0.2525441355915596 -0.24713595766977842 -0.23402889740737615 -0.22118663680887138 -0.2187933658670932 -0.22623126260504464 -0.23299311606588557 -0.23081632640344324 -0.22151164530287862 -0.21260342925256284 -0.20802758392116463 -0.20497343473591756 -0.1987921985125321 -0.1889095978314567 -0.17923298005200913 -0.17317646288780078 -0.16862924216634673 -0.1591753725950768 -0.14322193913799078 -0.1320841588441863 -0.14304039854158512 -0.1790091511170435 -0.21907291789299488 -0.237122907475402 -0.22944439031029976 -0.21647751182611855 -0.21631356103651664 -0.22448806599267554 -0.2245344883003729 -0.21208534710705215 -0.19996538725710428 -0.20028974052177329 -0.20969455725836708 -0.21610052969860113 -0.2149947793695206 -0.21298629642449868 -0.2165823943181365 -0.22337711010211395 -0.22632404436273426 -0.22305570755958742 -0.21782128243182663 -0.21536876249209272 -0.2151503182284578 -0.21142438128171903 -0.19864288250690573 -0.1788059876485374 -0.16485544402280977 -0.17293656065631408
-0.205935599152029 -0.2456039148588578 -0.2668418951218623 -0.26155365549255793 -0.2445178596127838 -0.23440977829434156 -0.23384370171753768 -0.2317124075330894 -0.2212503426768202 -0.20903985586751894 -0.20533690455753362 -0.21082813659212815 -0.2168087405951724 -0.21635906064417343 -0.21130517789298356 -0.20799538895262829 -0.2095439757264984 -0.21390279703066548 -0.2175307746500692 -0.2186469798450622 -0.21743727105639934 -0.2150248737062312 -0.212382841275649 -0.20866711843363211 -0.20082733458142368 -0.18815579478553507 -0.17868725659462673 -0.18628649197976496 -0.2155812945551689 -0.25166464026240914 -0.27167946155138345 -0.2678839436535151 -0.2538783076611088 -0.24634504822603162 -0.24653903031110588 -0.24401924015463514 -0.23392948021241874 -0.2232624130895844 -0.220065954178737 -0.22288345252882394 -0.22443064478243968 -0.22231170838439948 -0.22128411511948384 -0.22519115233831602 -0.23088219751259836 -0.2322323569960295 -0.2280106490386807 -0.22319654163652317 -0.22283216777157272 -0.2260643260972129 -0.2264148855626966 -0.21814806372178222 -0.20408944008683613 -0.19702506025071015 -0.20912568289468778 -0.23718504660428052 -0.26203373420933196 -0.2671427915109683 -0.25563579117447105 -0.24405773341743445 -0.24110736636565056 -0.23928228630774584 -0.22864129765651423 -0.21180237419465828 -0.2000870110306207 -0.19837600036101952 -0.20015551069220855 -0.19770278823954227 -0.19193292192832054 -0.18943045779367654 -0.19270033745083803 -0.19722206602970974 -0.19788358873637596 -0.19523496232101115 -0.19402676623054466 -0.19686124743852423 -0.2002795670793419 -0.1970428322576585 -0.18374462797037383 -0.16842730483483379 -0.16835096317320045 -0.19384448927921036 -0.23317928892545947 -0.2601401590912879 -0.2604736581648239 -0.2456710153417598 -0.23617774933752644 -0.2363941892049884 -0.23366233400155692 -0.21927800372016892 -0.20115309127101716 -0.1928935173366889 -0.1968434165651076 -0.2033272578510823 -0.20392936481223098 -0.2000326116584963 -0.1981030015390376 -0.20107948956873278 -0.20667799958451183 -0.2116286361806478
-0.21470089397278821 -0.21603057080152657 -0.2151926000459049 -0.2100668761459975 -0.19792041610489852 -0.18034663604626053 -0.16841915217652648 -0.1777969142114194 -0.21192717862964758 -0.25166563522406504 -0.26981894907273807 -0.25856968603651415 -0.23659949549302337 -0.22608876689182852 -0.2285990237952914 -0.2289344322196537 -0.21811309192399128 -0.20392912074562886 -0.19841687382234482 -0.20254936722802785 -0.20769646500898062 -0.2079860984330953 -0.20581658719951088 -0.20608977901153822 -0.20958221512809602 -0.21350571264716695 -0.2160547920105457 -0.217989880280783 -0.2203056812032283 -0.22235685055735527 -0.22238698011818442 -0.2181459134386789 -0.20770929025442922 -0.19373801947020142 -0.18726757082701023 -0.20046244451359216 -0.23098231238238012 -0.2588794116526391 -0.2657609532271471 -0.25436698753962095 -0.24295623019615115 -0.24238508118490654 -0.24609056203425927 -0.24310530638796055 -0.23343561789759926 -0.22622251637242996 -0.22685074480335726 -0.23145555993566175 -0.23372131980256403 -0.23257345683111919 -0.23114410647151637 -0.2307419753094372 -0.22916097762659238 -0.22486689471788293 -0.22003763867633402 -0.21779039618631182 -0.21734722612764085 -0.2133227082211915 -0.2005662935021859 -0.18114601485923623 -0.16712620697790398 -0.17289600852635478 -0.200183112437704 -0.23196041770112902 -0.2466636206781869 -0.23941620183358037 -0.22493800999385838 -0.21850806809740178 -0.21926136483309336 -0.2157518372696062 -0.20370187622018834 -0.19161611122223166 -0.18880800151946944 -0.19390624965942274 -0.19853514059558489 -0.19888813301127978 -0.19915881212014597 -0.20419269007122637 -0.21255865375335223 -0.21827825832314407 -0.2176912602688627 -0.2131343377683758 -0.20998785705733278 -0.21044056453504062 -0.21017328631924717 -0.20236009551520273 -0.18727240397719003 -0.17770919941393493 -0.1900526077161881 -0.22575182803356336 -0.2644596202782387 -0.28153246143114025 -0.2725338242975965 -0.25544683519406103 -0.24803870447962523 -0.24904785995364462 -0.2451657957896913 -0.23140373351243124 -0.21731333062279995 -0.21324571668687228
-0.21716032292541212 -0.21898050460244403 -0.21449151152427218 -0.20956107966644305 -0.2107745213343821 -0.21664947962387213 -0.22051535301475686 -0.21937854696620582 -0.21661317507737438 -0.2164407082101674 -0.21852848739717942 -0.21848252185601347 -0.21178584590366265 -0.19771868469284168 -0.18282008606348094 -0.18033411473022237 -0.20009984287648788 -0.2353820967813366 -0.26455047247260693 -0.27121099831259493 -0.2602709159710264 -0.2494654149813603 -0.24746279365192034 -0.24661255531021725 -0.23712629195124077 -0.22136841789139255 -0.21015743803651332 -0.20888649827530192 -0.21252144997431877 -0.21359483004676386 -0.2106539639522449 -0.20748196527511673 -0.20720722415527987 -0.20979237941086182 -0.21376912764427988 -0.2176771475754 -0.2200260571056409 -0.21986443242374903 -0.21738788668047002 -0.2127682737784982 -0.2058588217184915 -0.19992359590741435 -0.20393207479026274 -0.2250957998525367 -0.2571881761157472 -0.28171634999802725 -0.28529079346232994 -0.27311618472901034 -0.2611051641710837 -0.25698615813062736 -0.25458896019440747 -0.24611258696493352 -0.23359336596173186 -0.2252214862636815 -0.22428918448057172 -0.22614458588313102 -0.22515301746803 -0.22122727597928443 -0.21862367136320712 -0.22017351233749874 -0.22422128812982717 -0.226955820856751 -0.22657407959013795 -0.22426243327206402 -0.22090361814257561 -0.21371201514636087 -0.19867549851402094 -0.17898103081506234 -0.1692191549074807 -0.18438613123005143 -0.22106527406177445 -0.25496375178069364 -0.2637710927759755 -0.2501863909288272 -0.23590037667588848 -0.23424818110261766 -0.2370094913251663 -0.23024591204131178 -0.21493902339682272 -0.20489461293296657 -0.20780804078971682 -0.2164451318209442 -0.21957993949836768 -0.21563268489231444 -0.21195001717603762 -0.21384974712314456 -0.2188448562653602 -0.22144297798079451 -0.22001902115436126 -0.2171026189302464 -0.21455898500305587 -0.21064561557853342 -0.2019259588852883 -0.18793888816185048 -0.17523935057248505 -0.17604368335255297 -0.198057521241839 -0.23308636947068725 -0.2602525285255506 -0.2653321740041648
-0.25459690386069406 -0.24522170558797118 -0.24437590600020914 -0.2437128090949373 -0.2342275862126714 -0.21971988449684404 -0.21172155826290637 -0.2150150178029479 -0.22343743227756455 -0.22928193673532618 -0.2319742255239254 -0.2357181371119884 -0.24206457762898764 -0.24827170775759635 -0.2519570641160613 -0.25405919564867685 -0.25630227084349283 -0.25741358217320054 -0.2529657257448027 -0.2392074324176697 -0.21854169088989395 -0.20229512223086873 -0.20475539584070443 -0.22926860082379075 -0.2605454756060915 -0.2762623840825063 -0.2684261062285921 -0.24957514456607108 -0.2361930643342934 -0.23061358854575045 -0.2231455500925335 -0.20830076041296594 -0.1922357258332586 -0.1835697070063463 -0.18232079839831494 -0.18132883273989123 -0.17590843439386578 -0.16809375091894094 -0.16183091459235968 -0.15771515003892148 -0.15402053686603623 -0.15074293371323105 -0.15022771775841887 -0.15369685111949616 -0.15823922134147522 -0.15853029039212885 -0.15333668182375554 -0.1506610463489957 -0.16289630341072284 -0.19306693389782115 -0.22771960160760263 -0.2484441505277208 -0.25063995671601513 -0.24649002361070121 -0.24856444696731192 -0.25540681477407373 -0.25647035356372727 -0.2477283158808908 -0.23720325001296869 -0.2350388910891146 -0.24214361405373716 -0.25067559115490107 -0.2536494425931367 -0.2514176694133102 -0.24898116544035653 -0.24934624463337843 -0.25091519490765096 -0.250523089103135 -0.24744304144150053 -0.2436562143375344 -0.2401355177342479 -0.23337104849389814 -0.21777282028180492 -0.19474645674494495 -0.1787631650767379 -0.1877492993362658 -0.22240426994522647 -0.25941433213393617 -0.2726364877728558 -0.2599702288101611 -0.2424792991372804 -0.2371668144369128 -0.23881685417613102 -0.23207820226574102 -0.21413752225444055 -0.19768425770471623 -0.19364950773076225 -0.19875545375998083 -0.2022017244114064 -0.19937035559035293 -0.19475154385673607 -0.19364518889944066 -0.19552595886702756 -0.19621727552608478 -0.1936853718123746 -0.18989899513912553 -0.18783364716390366 -0.18739155105782776 -0.18381359522835128 -0.17144061983985684
-0.15258899036246154 -0.14230796478000898 -0.15732186850446636 -0.19562850688783368 -0.23243989588631697 -0.24363128642781187 -0.23106759508269276 -0.2178095406297704 -0.2192895798511111 -0.2274779094907809 -0.22601815635683437 -0.21320992108973874 -0.20277601510584575 -0.20481967946594767 -0.2139633070788439 -0.21816993182088165 -0.21385253674940313 -0.20807742285829944 -0.2080637121465928 -0.2130223575928195 -0.21708565738886668 -0.21712179073172036 -0.21522883614564095 -0.2145088948370023 -0.21454980594010287 -0.21148641603735424 -0.20228051375259906 -0.19009205674073343 -0.18548710899825116 -0.19862785262075044 -0.22708397838583486 -0.25399196895311243 -0.26294460262453695 -0.25431067902674065 -0.24299398835748576 -0.24012946227636042 -0.24165555585220375 -0.23705254034978238 -0.22499495498375677 -0.215073900179787 -0.2148834414388246 -0.2207863409878457 -0.22373487825809207 -0.2207707998189936 -0.21704463847077224 -0.21760532623736462 -0.2210999658933464 -0.2227659251045873 -0.22102213580412267 -0.21863780773801925 -0.2178600092032045 -0.21619298769726078 -0.20808409798588587 -0.1918293203490154 -0.17561820586408092 -0.17436824675994825 -0.19579669036123404 -0.22890264858149903 -0.25118641485648074 -0.25032750426427797 -0.23557004307956 -0.22482273595809824 -0.22399385636295174 -0.22396737640717723 -0.21626202760042382 -0.2049273406258448 -0.2001465574354885 -0.2045260572105944 -0.21087343741611664 -0.2126161511651539 -0.21144505845807926 -0.21282703492467744 -0.21748793270143754 -0.22103365488008997 -0.2209922417128309 -0.22041887909063618 -0.22316399541984958 -0.22763072360711106 -0.22704837284527593 -0.21601670170471193 -0.19747368835573964 -0.18428826527477948 -0.19161889154130618 -0.22277022721185155 -0.26184008788521596 -0.28515965155945805 -0.28307298932206015 -0.2678145112751121 -0.257575861111563 -0.25617385836545314 -0.252847323020157 -0.240015675066012 -0.22434678191579618 -0.21769003705131593 -0.22199070209485527 -0.22825030583552622 -0.2286612865712218 -0.2246135304580893 -0.22203514054789555 -0.222987939111788
-0.22435026345674672 -0.2229304580313894 -0.2195151702880864 -0.217809930107122 -0.21993341402000674 -0.22272753629923073 -0.21924478352249718 -0.20651835195912605 -0.19308259226839378 -0.19518621879948145 -0.22054658462330967 -0.25651794150323887 -0.27988565295254897 -0.28013591809838506 -0.2685928222769581 -0.2621256428735083 -0.26277023998617427 -0.2590466420810581 -0.2449409247586456 -0.2296849806936478 -0.2258720227419338 -0.23335449820314902 -0.24059626488716984 -0.24013540023376437 -0.23659002007893495 -0.23798389810285686 -0.24430012486964223 -0.2485972206406653 -0.2468674690935842 -0.24236295167421076 -0.24036523582699099 -0.2416069044774501 -0.241281958470876 -0.2336632277082856 -0.21932532263117258 -0.2089979624806445 -0.21634320748994382 -0.2425432053782949 -0.2706825655408116 -0.2810439127513005 -0.2713025485523079 -0.25653123866802463 -0.24950518020158835 -0.24714714403432791 -0.23892775158310264 -0.22332546684519214 -0.21011991124239085 -0.20750462020661825 -0.21241859452078887 -0.21572673707714993 -0.21365389300468793 -0.21066145755266155 -0.21189863995257027 -0.216206866800391 -0.21812641342774727 -0.2152892854577441 -0.21144613075136393 -0.211221034066688 -0.21288857785643694 -0.20876164175904077 -0.1951011834836311 -0.18123225541386223 -0.18435253653334743 -0.21112855065016808 -0.24652209743672437 -0.2665933768594394 -0.26297787866590294 -0.24957205366784807 -0.24339700326347238 -0.24459430474266716 -0.240316982580566 -0.2249523923951842 -0.20876254275356132 -0.2044599431624756 -0.21101180483877963 -0.21614951301145366 -0.21283251308045673 -0.20713497546417844 -0.20836989106418663 -0.21613276015492586 -0.22119200690409155 -0.217653291707697 -0.21004535809781957 -0.20696984585921002 -0.20977316925436038 -0.20975064845576946 -0.19773510582016973 -0.17723249360236767 -0.16664514853474147 -0.18360102027146297 -0.22414037137156706 -0.26152291777225034 -0.2710444386014956 -0.2543809504490894 -0.23447642877726457 -0.22807345463039458 -0.2302022775181459 -0.22675535174117983 -0.2146686295176854 -0.20379141181248425
-0.20249300452989377 -0.20858550932813533 -0.2150149718815444 -0.21877238476990382 -0.22117108618961 -0.22293913546443084 -0.22307275858117825 -0.22140151872391536 -0.21930963557372082 -0.2180983834281923 -0.21807505961909512 -0.21823769628486875 -0.2156638302929841 -0.20780539222382022 -0.19862389243023496 -0.19985706833519082 -0.2200066825595532 -0.25155858788943986 -0.2751437631465733 -0.27907078603402424 -0.2702961458078597 -0.26308569527749 -0.2612687505904258 -0.2569902786128957 -0.2450061198794013 -0.23151261939259926 -0.22615825471857623 -0.22928252851880382 -0.23172350761371902 -0.22677777938815735 -0.21824321007735445 -0.21476338131512582 -0.21870542398698792 -0.22369105070029754 -0.2228392140301305 -0.21654393507028624 -0.21008167090771268 -0.20465902301502378 -0.19471634229234372 -0.17743281419866977 -0.1630092793986608 -0.16863546148877825 -0.19845143020701908 -0.23422482528686464 -0.2520906334091759 -0.2468979792748357 -0.23440231545641182 -0.23019474366794535 -0.23308243320716457 -0.231560553242968 -0.2212239344383278 -0.210148332135176 -0.20798722707771392 -0.21464660121841603 -0.22188128362900866 -0.2236126311567146 -0.22169354855168158 -0.22175376932454924 -0.22579131167629474 -0.23021060628531398 -0.23051366181746594 -0.2265994543143761 -0.22233017746920883 -0.21935661200580223 -0.2128461986874155 -0.1972742818305931 -0.1785774378430108 -0.17563805411799943 -0.2018950046512921 -0.24564638339929507 -0.27698812061616646 -0.278152159432759 -0.2609761319637115 -0.24950918486888404 -0.2507794566290542 -0.2508268652325959 -0.2378990799054305 -0.2196678219072038 -0.2125801186119647 -0.22009580488873356 -0.22932914658154954 -0.22859151468960198 -0.22110520893621968 -0.21805563123563512 -0.222736859644302 -0.22734215539663452 -0.22462143297870404 -0.2167866813777432 -0.20983715160371783 -0.20327522405737927 -0.19229545989438618 -0.1806574950614518 -0.1832818612255558 -0.20911479147614842 -0.24519872213240146 -0.26662225297744113 -0.2630910970319831 -0.2484309890789619 -0.2412752867162481 -0.24313862932334315
-0.2412129073659496 -0.2286381816330401 -0.2139108897246844 -0.20909094754992558 -0.2148558398383058 -0.22157971085254277 -0.22244998202726501 -0.22033135775137286 -0.22120565200236145 -0.225210421044162 -0.22724567705129128 -0.2245252769517026 -0.21953760937215244 -0.21468933174647403 -0.2079801579588257 -0.1984267157027875 -0.19391874908709944 -0.20606298823578498 -0.234017136297069 -0.25979116426193966 -0.2658894040315247 -0.25449329885617095 -0.24289703599996149 -0.24152035300048968 -0.24358378866426125 -0.2380730894107709 -0.22621880450504467 -0.21945598981065917 -0.22371844517733983 -0.2322426566572874 -0.23516748005718605 -0.23148281547275418 -0.2281886793241574 -0.2301054827194487 -0.23444420947774386 -0.23504297461609613 -0.22829208182511987 -0.2145014686987784 -0.19832919458797063 -0.19030595788848775 -0.20186915443744255 -0.23221805721533206 -0.2633309285796327 -0.2757401688002906 -0.26883333220542815 -0.259063763795725 -0.25812287322847555 -0.26032292234142596 -0.25431979232103075 -0.2405256785782301 -0.2303039425690386 -0.23035239064817523 -0.23484062721246435 -0.23455731080203746 -0.22886821969587604 -0.22484844545134605 -0.22678912022888714 -0.2309076981569462 -0.23093747292061134 -0.22526131920873332 -0.21585875060081833 -0.20309745838406731 -0.1874985206732008 -0.17717733969923533 -0.18578586849666606 -0.21661698898117052 -0.252637552930993 -0.27030041038475605 -0.263427468190342 -0.2473080167953227 -0.23833152198058635 -0.23616491723710192 -0.22972206283516083 -0.21536916786590002 -0.2020862928421098 -0.19896608700551363 -0.20371752114579428 -0.20670500154123045 -0.2033509906538165 -0.19844013000989233 -0.19827966696686095 -0.20217919553618152 -0.20404924277789804 -0.2008207500513234 -0.19552203457257863 -0.1907399984026907 -0.18303632331636682 -0.16946574927003563 -0.15885389991233895 -0.16813575587733706 -0.2018042703784944 -0.24033534633091927 -0.2575182256242261 -0.24828967255854803 -0.2317781423045476 -0.22610949250708323 -0.22841211263704086 -0.2240316485680434 -0.20881822750088058 -0.19408251958013117
-0.190963575304434 -0.1977206191185632 -0.20504808441008737 -0.20844169207404953 -0.21045517845516692 -0.213310376101334 -0.21503095529446326 -0.2137874103613506 -0.2118616182186052 -0.21255907717607953 -0.21479194386900813 -0.21297054843915758 -0.20270193667100864 -0.18710254782274036 -0.17785120504385452 -0.18726509911915218 -0.21554463518606728 -0.2468487681314372 -0.26257350091235543 -0.25937486589067854 -0.2505280939369152 -0.24880213225119804 -0.2525062291769505 -0.25121004039407546 -0.24143247897918885 -0.23134836973248982 -0.2301626522148473 -0.23737896063989944 -0.24481016203593553 -0.24661798067183746 -0.2442190528166314 -0.24193857901775223 -0.2411428900779144 -0.24021707759567257 -0.2384333016053687 -0.23711080395387507 -0.2363143898645869 -0.23216143129831526 -0.22043198284689758 -0.20490401395421903 -0.19971915083295974 -0.21743095204477586 -0.25251446675545675 -0.2819527630208394 -0.28704939423265824 -0.2721377970115411 -0.257171566099299 -0.2537829454889935 -0.2546616331070759 -0.24733224443041602 -0.23218006389672902 -0.22169572028524479 -0.22400994734973845 -0.23294119232094143 -0.23616474487724712 -0.2296686104360641 -0.22071968188333432 -0.21777281675229457 -0.22117220653810066 -0.22486568513224495 -0.22462782269576057 -0.22194244800897292 -0.2198386353283372 -0.2167784134366331 -0.2072674374870332 -0.19097121026520783 -0.17997051527309563 -0.19062716170760516 -0.22411746953828451 -0.25968127139441005 -0.2737685174180081 -0.264176866292888 -0.24916159893301143 -0.2436231460551933 -0.24359559474136339 -0.23668836511320446 -0.22122257636878506 -0.20839752498649344 -0.20722264050288236 -0.2138044628300813 -0.21772556520496927 -0.21488593048262267 -0.21012748226055086 -0.2087057777402221 -0.20955536338315045 -0.20837020138294474 -0.20447056278897482 -0.20160822005609474 -0.20228831226911856 -0.20345908666065435 -0.19863283332273077 -0.1843786333170343 -0.16635703379208405 -0.15934427161108425 -0.17673547821450486 -0.2153206429847861 -0.25296353584410236 -0.2674049535050032 -0.25767832058479406 -0.24259635557599094
-0.2380284118946464 -0.24096236528621495 -0.2381809815213793 -0.22548232393437892 -0.21231454529240912 -0.20849243780641785 -0.2126638160750466 -0.21669783199820358 -0.2173360106762399 -0.2187002291134511 -0.22423077166572974 -0.230747965020258 -0.23238238374104608 -0.22815138697476695 -0.22325533773456474 -0.2227971044523367 -0.22522619967813448 -0.2233228628632166 -0.2135390430084749 -0.20426116871585542 -0.21053448883867304 -0.236891072946938 -0.2683645192891233 -0.2841337536670121 -0.2793980310762607 -0.2682014069002471 -0.26414825277980186 -0.26484745911414215 -0.2593013834365101 -0.24564821916762158 -0.23431354089189 -0.23378032715807565 -0.23974480895169514 -0.24165962942624308 -0.236281752415035 -0.23027439272200004 -0.23029122232638144 -0.23454085470903183 -0.2356494613569279 -0.22971668529298742 -0.22041013276371493 -0.2143670971181602 -0.21356838096162578 -0.21241870142953478 -0.20340525476124938 -0.18795742233635682 -0.18055172259862937 -0.19607094035860168 -0.23055315676944702 -0.2604301870852907 -0.2662037554274461 -0.25279882386901775 -0.2403396924417924 -0.23815173897779737 -0.23660699131393223 -0.22505733049865664 -0.20841391591810052 -0.19991279322383676 -0.2026535946842189 -0.20645348798841562 -0.20276979849577764 -0.19577212874949862 -0.19546580853292306 -0.2040971305168857 -0.21388475845947566 -0.21696964498074403 -0.21377445525309535 -0.2106968850021731 -0.211350652685608 -0.21142036130901073 -0.20349960167325332 -0.18879001884855703 -0.18218903542312448 -0.19964509232680072 -0.23810700739336774 -0.27374655292712413 -0.285069548316196 -0.2743023971044816 -0.26074863567511514 -0.25588178168835485 -0.2522287186950862 -0.23763676305862935 -0.21377992071217547 -0.19557422442140543 -0.19462057495817509 -0.20803657355712268 -0.2240538147601586 -0.234890115585135 -0.24170094312567736 -0.24874170464961196 -0.2563990369971154 -0.2615111018547152 -0.2625599707282045 -0.2611817394822722 -0.25750830818253845 -0.2475358617305017 -0.23031157107928898 -0.21722284370277964 -0.22596845156190995 -0.2594602884990177
-0.2959713486637122 -0.30881559972322503 -0.294735270605277 -0.27517029501788826 -0.2689706337966028 -0.27196453648641483 -0.2673512515434104 -0.24960363659896467 -0.23046594798857625 -0.2229958146950671 -0.2270462054459565 -0.23293822203194758 -0.23462378063171216 -0.23467018899105827 -0.23776249893018947 -0.2438091419099196 -0.24896692028286202 -0.25112915629118365 -0.2518687220774954 -0.2524599912525518 -0.24915987467022283 -0.23525152050655446 -0.2111553596321748 -0.19173358493625275 -0.19673112658326875 -0.2289669385399858 -0.26627144021617144 -0.28194839631521074 -0.2717835279493793 -0.25450233728956106 -0.24655741304465256 -0.24474101507910223 -0.23659388935848097 -0.22053278964503012 -0.20807412409894796 -0.2080926554648335 -0.2161149084779091 -0.221241255547272 -0.21905299869657485 -0.2141898607494384 -0.2123985011025546 -0.2139207303934044 -0.21510028922671345 -0.21403528882275208 -0.21283752366072448 -0.21406053328304211 -0.21541177580697948 -0.2098749768098146 -0.19406395831559062 -0.1768068299357873 -0.17485996976791496 -0.19556421060110388 -0.22551669194356552 -0.2417249112314804 -0.2347449872542137 -0.21668597201436268 -0.2050474566058759 -0.20310117029278796 -0.19998640030029616 -0.18746210290484897 -0.17073292696922723 -0.16115666915948318 -0.16232503413024377 -0.16729379194227031 -0.16841475223699554 -0.16566828520245117 -0.1638918987914777 -0.16501586421691147 -0.1663482022093359 -0.16557761205547233 -0.1638013673527523 -0.16217518254019925 -0.1586915425276926 -0.15263134318975555 -0.1515717914961484 -0.1674264672859838 -0.20115180596333487 -0.23557443174595463 -0.25006408848636397 -0.24191582565784403 -0.22785958945163104 -0.2237385774351026 -0.22811725812603173 -0.22898544331265366 -0.22193032918668443 -0.21498821490006306 -0.21584684749474373 -0.22107107810226906 -0.22185411608808953 -0.2164567721097679 -0.2115704107188811 -0.21233727086519924 -0.2162692492279606 -0.21853337977570692 -0.218839716210999 -0.2191297965126615 -0.21701163515242075 -0.20833457571123104 -0.19864627119410902 -0.20537304090618333
-0.2402110938453708 -0.2902933391038993 -0.32538869293985834 -0.3272669313418238 -0.3066341382965868 -0.28760831231797307 -0.2807210171612384 -0.2769501965890584 -0.26506681931658466 -0.24678194460588337 -0.2327964772383665 -0.2294096022011906 -0.23348434384134176 -0.23862301813709558 -0.24181079690071117 -0.24323403290374068 -0.24273493196209267 -0.23877823820349986 -0.22989551374702225 -0.21547422118184759 -0.19635764329732655 -0.1777054233457537 -0.17080034873725544 -0.18638033507239765 -0.22197350534353308 -0.25900239669694136 -0.2779419439667141 -0.2759144362601873 -0.2653873485230766 -0.2566837331308337 -0.2474829119846461 -0.2308254745067492 -0.20778668667834368 -0.18740807514689792 -0.17602660026676323 -0.17141526135474794 -0.16815347101243489 -0.16509568335003905 -0.16499012442105146 -0.16861364036485646 -0.1725821441716244 -0.1728918175687617 -0.1675545115612709 -0.15552404463002592 -0.13897242134392487 -0.13157910680699805 -0.15824637354827392 -0.23385104512233496 -0.33992481705629757 -0.4321545348304968 -0.4759147796377755 -0.46922395077675194 -0.43055296923235226 -0.37528791065177225 -0.31120486768453764 -0.24856319323993792 -0.20169536058453463 -0.17812520755806274 -0.17180313628344474 -0.17005215970580448 -0.16519253087852317 -0.158085642014535 -0.15264728048062381 -0.15013988656599056 -0.14926825209980607 -0.14897052986308193 -0.14829321978255172 -0.1447698206970035 -0.13736709979978406 -0.13244782470153824 -0.1417460500258298 -0.1688999917844137 -0.20010159754921736 -0.21501811927439393 -0.20833357968198193 -0.19497502906686465 -0.19165385852753886 -0.19863149410986292 -0.20436442725019305 -0.2039466860136115 -0.2051079320866144 -0.21535678631881003 -0.23027787442018885 -0.23927718827223707 -0.2396424555924504 -0.23949238416171992 -0.24672226189786006 -0.2592974582937016 -0.2687972417931548 -0.2710891071507513 -0.26933206900810813 -0.2659749112104102 -0.2574761224695867 -0.24319977797463377 -0.23654201940718814 -0.2560149651043132 -0.30079049703347105 -0.3440500361094151 -0.35895256591687025 -0.3465419622753526
-0.3298620110992805 -0.32361120417771844 -0.31942972298269473 -0.30231240617409383 -0.27246080477352463 -0.2447652205092041 -0.23065160818700187 -0.22690922814893008 -0.22232542775531464 -0.21032661703084088 -0.19289214785266232 -0.17510073037205465 -0.15942376837180727 -0.1450764039854748 -0.1299698335308416 -0.11188419050188898 -0.09020448776326238 -0.07055733392008677 -0.06758338637230438 -0.09647325757445585 -0.15563554226066303 -0.2202796495819571 -0.26039569926621847 -0.2665516206850252 -0.25383697541756034 -0.24060159352369487 -0.2298040195225933 -0.21420773982506092 -0.19372835634263666 -0.1798974840450262 -0.1828928714784295 -0.19932769288766708 -0.21551165201674224 -0.22061854857747254 -0.21436819411866315 -0.20329054783140996 -0.1931500096419852 -0.18620807044969584 -0.18249227676647617 -0.17958926785048226 -0.17248148904852603 -0.1596692834451042 -0.15102777715628962 -0.16245993221823385 -0.19693183540235923 -0.23541087320650764 -0.2539594308298981 -0.2482832102678631 -0.235117009830886 -0.23043508523182415 -0.23388487795002086 -0.23636600811223005 -0.2348042806711286 -0.23327985444345514 -0.235611798613053 -0.2472698251781834 -0.28350262559067707 -0.3621541820633993 -0.47890908113054315 -0.5943791245490696 -0.6567397773234418 -0.6422630225773419 -0.5720469795221623 -0.48851318393966675 -0.41943585813535533 -0.36669179765366844 -0.3224294384448778 -0.28424778232131104 -0.25243081961988983 -0.22275722861025488 -0.19077469420393584 -0.15989551170192537 -0.13799681421553428 -0.12639882421869666 -0.11796928861369331 -0.10738177214443902 -0.09863274721245063 -0.09942150969805125 -0.11056322458570965 -0.12439120442017626 -0.13313928610324016 -0.1360347610026655 -0.13752860545277143 -0.1410647915742242 -0.1465593074077658 -0.15275914235590912 -0.15950057261772146 -0.1670592041455697 -0.17484086531274654 -0.18164402695977275 -0.1859428533232255 -0.18491080559499817 -0.17593386273398193 -0.1632077730059641 -0.16086873774536908 -0.18156103179701297 -0.2188300876401334 -0.24780589175633297 -0.24962220025052323 -0.2315000629379394
-0.21656218616196063 -0.2163085087397999 -0.2204863224242803 -0.21439471365834556 -0.19851289358081 -0.18631095137075165 -0.1867017273396336 -0.19473394847641734 -0.19963581878858605 -0.19735833342238815 -0.19272177459523018 -0.19156076047259735 -0.19421520000730141 -0.19705032916758936 -0.1973932734094342 -0.19438196434495258 -0.18674356111465854 -0.17517560711058824 -0.1688623060608141 -0.18313442918495912 -0.22289597547461742 -0.2702889339757501 -0.2975515509592664 -0.2946739527085551 -0.278470557371172 -0.27136341429652233 -0.2767102540240221 -0.28019166352164654 -0.27176419725274953 -0.258375875785806 -0.2533778884895584 -0.25920598200016454 -0.26564062828519486 -0.2637251931911921 -0.256336921090889 -0.2529891146365239 -0.25723218959314925 -0.26287405716350354 -0.26204262066189576 -0.25302185760962226 -0.23883773468971067 -0.22270213551409437 -0.2096840894474282 -0.2096589377915197 -0.22975229721272536 -0.26145513026842576 -0.2826837194417811 -0.2786155113554675 -0.25709392574472256 -0.23811626049606388 -0.2303323020609679 -0.22406100546101315 -0.20774084802689421 -0.18493451193810148 -0.17071076085636802 -0.17381287636096918 -0.18742920036283864 -0.19839564477660185 -0.20193553345792914 -0.2045076689730124 -0.21343174571366214 -0.2271418591945796 -0.2367239964930641 -0.2343834308079552 -0.21827942370267103 -0.19201585138539098 -0.1642264219005878 -0.14743264010495738 -0.15037353684460408 -0.1684671786275159 -0.18619730143006763 -0.19240563411989395 -0.19065572473663936 -0.1919413323997167 -0.20019699612634095 -0.20910435076230785 -0.21189315777117768 -0.2095605028679966 -0.20801868282233288 -0.21053939613935008 -0.2160765053782947 -0.2236104110038986 -0.2342990316368174 -0.2480395330516779 -0.2602507473613206 -0.26430888216389276 -0.2567475157942065 -0.23940835950352862 -0.21840913045689017 -0.20285480291262165 -0.2018522605298344 -0.2175732733275099 -0.24022643461412524 -0.25371496404695854 -0.24864252438867096 -0.22870657428804322 -0.20600080774568946 -0.19621054887118444 -0.2189751248836584 -0.29135669329823377
-0.40849790159442073 -0.5316764911330939 -0.606328707136281 -0.6000164635771431 -0.5252648399393786 -0.42668365120421864 -0.34646527675523053 -0.2993217765587714 -0.274079778354554 -0.25261315921813254 -0.22522174408000664 -0.19319736037298263 -0.1645998979260257 -0.1492297981570338 -0.15196531638686392 -0.16676152745972203 -0.1796217988896632 -0.18096270204697062 -0.17386911546164954 -0.1677075479525996 -0.16547422014143262 -0.1614669844095742 -0.1511138065564641 -0.13829366674123755 -0.13043795577805822 -0.12941690330486297 -0.13076335728887042 -0.13062311102240312 -0.12978710152975487 -0.13055005324267158 -0.13296629010114297 -0.1361974054204336 -0.14142994366847203 -0.15011096243103317 -0.15916439127402973 -0.16213670718321568 -0.15914680819016158 -0.16326622945490463 -0.18950202401788838 -0.23505014382060027 -0.27689471317969894 -0.29404150249875777 -0.28831296487494507 -0.2782369188304916 -0.27584031493686045 -0.27649010693041975 -0.271172249948269 -0.26098921962204036 -0.2550237668289908 -0.25781812059172415 -0.26450663261505486 -0.2678640283099226 -0.2658691722174028 -0.26113019079025646 -0.25593226684021053 -0.2501254652260081 -0.24206530854526787 -0.2289017706766975 -0.20772988189776048 -0.1815250241112511 -0.16379777505144236 -0.16963048008947143 -0.19733147985533722 -0.2245389713788965 -0.22922522468233292 -0.2120350300208157 -0.19213884609131926 -0.18334016200465153 -0.18162747219331085 -0.1768140810787226 -0.1686145626590979 -0.16575598180428916 -0.1727354242020281 -0.1839205128569197 -0.19170063182783006 -0.1964902447290507 -0.2059874955374863 -0.225634087813858 -0.2518534181766501 -0.27465125869842283 -0.28539611373957047 -0.28278617057150934 -0.2749456160649085 -0.2767946672557007 -0.2998465273938776 -0.3390515080222724 -0.3723621489609078 -0.3798229615561 -0.36347136126580126 -0.34364244928712817 -0.3352014433875172 -0.33274075206121 -0.3216536940761769 -0.29886465655496175 -0.276831500154369 -0.2679834389301916 -0.27076286335795163 -0.2734028540079738 -0.2682093954923963 -0.25836958433520046
-0.2512149567968381 -0.24834178894896558 -0.24444601911015637 -0.23408939349125807 -0.2164609909713738 -0.1942622456104459 -0.1729873390428776 -0.16274259947520833 -0.17379869072907506 -0.20384141579005113 -0.23351324031618512 -0.24257595507039487 -0.2301774445221154 -0.21300564533524805 -0.2037533199695173 -0.1985840211796607 -0.18784048473516465 -0.171829394502995 -0.15985250316389266 -0.1568586346401425 -0.15789632680497892 -0.1563986407456184 -0.1527146286164531 -0.1515521638382368 -0.15400240786270505 -0.15611607832750332 -0.15493511615406053 -0.1519993675731622 -0.14893945370723344 -0.1430378556827823 -0.13252074838840397 -0.12573211852684651 -0.13725206625492034 -0.16973770590432738 -0.20474659255534353 -0.21935495601509383 -0.21077494769701127 -0.19754615978998163 -0.19569819322841908 -0.20106606630476065 -0.19930945878433207 -0.18751152392466308 -0.17769764695183615 -0.17958895191478766 -0.18779531692030588 -0.19009683480112918 -0.18381272807066043 -0.17822059966520978 -0.18166845646646299 -0.19152042157290863 -0.19878725859931423 -0.19917539038761786 -0.19565566176969965 -0.1910344784017773 -0.1831927504844739 -0.17147178471248814 -0.16493047752478074 -0.17682341371913524 -0.20777023550023654 -0.23979292072124234 -0.25293228097795867 -0.24568931645869105 -0.2336710048575793 -0.2292505751039445 -0.2288849575673741 -0.22180721528026834 -0.20515706134552297 -0.18589215651156168 -0.1708554917639289 -0.16065436620756054 -0.15346209771933117 -0.14989393208211563 -0.15128810764792128 -0.15549558024340235 -0.15764901774926804 -0.1550694613650523 -0.14904628092658928 -0.140927278365564 -0.12927807445543243 -0.11486143670356516 -0.10753398091242447 -0.12113909975258323 -0.15672563094061134 -0.1954508860574413 -0.2153921553580696 -0.21403464866058539 -0.20713288681490447 -0.20579573776251517 -0.20471318303834538 -0.1990527675726017 -0.20460018812623476 -0.24695528372680187 -0.32814664913769315 -0.4148411748826242 -0.4676537617555743 -0.4772120910556525 -0.46417689857728456 -0.4483042285505819 -0.4288558933565672 -0.39695306858006946
-0.355373432823691 -0.3162588592745815 -0.2837302604878412 -0.25011894088381315 -0.2116444510507355 -0.17897874309064585 -0.16585158166667532 -0.17147428362408396 -0.1811591392505932 -0.18347000954613074 -0.18080001865803683 -0.18166657035412595 -0.1876934136329619 -0.19252642112968654 -0.19182852105262801 -0.189504091868356 -0.19225593589822731 -0.20055201840966805 -0.2078192789804004 -0.208171662586755 -0.20257980440089887 -0.19681218028106828 -0.19514095549726046 -0.19734078180952863 -0.20074545786117604 -0.20354114666612314 -0.20578664692810533 -0.20811254761180767 -0.21042318273705957 -0.21237268311363364 -0.21468524150429294 -0.2189801413502341 -0.22580572604893984 -0.23306073345858733 -0.2364410892328121 -0.23198441567634417 -0.22048340114891424 -0.21126623409370465 -0.21874587905546702 -0.2493250543717336 -0.2905280859109314 -0.3184361819874113 -0.31970741415693293 -0.30350348429217566 -0.2885716419192027 -0.2819184704346063 -0.27545916327904824 -0.26172369864794875 -0.24520187052030015 -0.23542229318430188 -0.234293460898064 -0.23528923418511746 -0.23291755979959383 -0.2281382406585399 -0.22433261539078764 -0.22184763119715975 -0.21838506712628844 -0.21268113592203575 -0.2055441465049306 -0.19782685146431786 -0.18915557479942308 -0.1786821158859811 -0.1656624318066863 -0.14975020395735295 -0.1338861325756769 -0.1278469967805144 -0.14382469074120569 -0.1829498595826222 -0.22835028537251395 -0.2580059568622396 -0.26502007059672583 -0.2603642262631372 -0.2556264292108929 -0.24950487011032169 -0.23421072297977402 -0.20977056682953893 -0.1860630438083803 -0.17174080005075126 -0.16583579167199472 -0.16145215537430765 -0.154681224048258 -0.147663279399283 -0.14434637822360952 -0.14591219888177376 -0.1506443262993363 -0.1561894637818108 -0.1606391079683738 -0.16269779197262257 -0.1627512183482661 -0.16340224648586724 -0.16662459228667356 -0.1699771966669287 -0.169204151432218 -0.16762218468532092 -0.1791854949981089 -0.21475017586660922 -0.2647241543306507 -0.30313592165538245 -0.3132606419984976 -0.3041256880255479
-0.29698220849496904 -0.299972744847473 -0.30298228099323576 -0.29569818197223197 -0.2824048530473863 -0.27531126539340034 -0.27838438804686566 -0.2838713978571441 -0.2838890190496298 -0.2798008328007175 -0.278041561562698 -0.2805805793310778 -0.2833322566121866 -0.2825544781826025 -0.27898071644870936 -0.2750858648366982 -0.2711611157493064 -0.2658550688456394 -0.2589972176511709 -0.25138246371494 -0.24188377883186196 -0.2282264866069087 -0.21355474313783865 -0.20943781184297872 -0.22557790898495966 -0.2549727043335949 -0.27588676012127705 -0.2734214589691343 -0.25502072845132306 -0.23932711764248127 -0.23321317526304672 -0.2273443262278417 -0.21376848254982886 -0.19900139865082592 -0.1950057783244243 -0.202654696392661 -0.21100857623366878 -0.211808656847894 -0.20850984583634832 -0.20914933474166197 -0.21476717280875288 -0.21895027010151255 -0.21736088030489423 -0.21338515499670493 -0.21297759680334438 -0.21676726977110397 -0.22005337446065448 -0.21945487736401761 -0.2160296630617684 -0.2110119645896268 -0.2025376587770069 -0.19079261144508772 -0.18406372040783955 -0.19278562940798039 -0.21604756230136166 -0.239730291744598 -0.2507216901994441 -0.2484983343695166 -0.24044557981927123 -0.23109756569744225 -0.2205849088938939 -0.21039792857379105 -0.20468676009195014 -0.20519758782780823 -0.20875005088360504 -0.2115290632136508 -0.21357812752174568 -0.21694237377042355 -0.22090928119729353 -0.22199550788190855 -0.21882257487774703 -0.21459358464902892 -0.21342667896287512 -0.2156578807866251 -0.2182944065576008 -0.21875544611799944 -0.21562240219377124 -0.2070532750845067 -0.19379909053459551 -0.1850813981320959 -0.19447689860124268 -0.22384868872093552 -0.25550540308037034 -0.26799672338924896 -0.25880145411013605 -0.24464669328442828 -0.23912654495735625 -0.23749896164625714 -0.2274579140217513 -0.20898752930902714 -0.19579891571938807 -0.19775007708476566 -0.20891764081460212 -0.21607304619486464 -0.21433725194250286 -0.20993147198766296 -0.20975342992613732 -0.2136006639064704 -0.217455923285045 -0.2201140460701406
-0.22340082244639334 -0.22747154682271226 -0.22894731785023986 -0.22404752080957177 -0.21270031808241666 -0.20059586671291302 -0.1977388209588404 -0.21140542939399715 -0.23682725013366068 -0.2573682715952389 -0.25930111721692223 -0.24619048861835335 -0.23409742560541077 -0.23246960033132702 -0.23497116940802576 -0.23104241668871697 -0.22138149971455867 -0.21700274944848083 -0.22479826065895514 -0.2391795607231639 -0.2486727308805159 -0.24656828894684868 -0.23367482813026497 -0.21630455401074533 -0.207562408332402 -0.2274685882139544 -0.29155804647397804 -0.3933896139136435 -0.5012577207243922 -0.5774148598756053 -0.6022483333849608 -0.5802521348068497 -0.5264938867069517 -0.45296439593208865 -0.3684264885692108 -0.2844033119436388 -0.2137894743267979 -0.16294674102004633 -0.1290867627856274 -0.10655911883737763 -0.09281536825031413 -0.08689735795214777 -0.08529347354060728 -0.08299614895531837 -0.07863547334518346 -0.07626109827890834 -0.08101483722502514 -0.0937302925740177 -0.11015581504645067 -0.12458277230530856 -0.13344056539076762 -0.13614646228582852 -0.1340645913465063 -0.12903649877187667 -0.12216687430974367 -0.11431395038633593 -0.108956810544904 -0.11328246582524695 -0.13238298364567092 -0.1610298412513734 -0.18518798090158695 -0.19526212012944524 -0.19577222851465256 -0.19807870339938574 -0.20493864776184711 -0.20868076785414502 -0.20852567167530273 -0.22506088670766758 -0.28777417115468235 -0.4027334233164138 -0.5350260592733027 -0.6282790545249792 -0.6450239845611581 -0.5914539386758488 -0.507447570402651 -0.43471187425672286 -0.39051159470246394 -0.3640804874310825 -0.33345130919288296 -0.287692915610564 -0.23696896287965713 -0.2015539484697618 -0.19007222419168204 -0.19032946976117146 -0.18334630405401053 -0.16360320085453703 -0.14162639132337135 -0.12843552631674177 -0.12297109611232983 -0.11624180821871177 -0.10354410002091298 -0.0889677994307163 -0.07926831206946594 -0.07663184217455687 -0.07797895611087172 -0.07920913750304871 -0.078737826945792 -0.07770082946945396 -0.07807083037362159 -0.0809137569284155
-0.08610571286935631 -0.09335023441875392 -0.10296499176348778 -0.11519013358384032 -0.12893139428234174 -0.14184449825135406 -0.15150895708670484 -0.1559122375191182 -0.15442806440743123 -0.1518808298357377 -0.16082847017056204 -0.19244472365651336 -0.2407773767091306 -0.2820343948428225 -0.2967483944387923 -0.2898983885444922 -0.2822822079398653 -0.2840851101350085 -0.28565306391248657 -0.2757405298158021 -0.25990243729207113 -0.25391493802988346 -0.26294237503018625 -0.27523944229299446 -0.2774303459347413 -0.27001272958592837 -0.26413370530019703 -0.26637542276707904 -0.2716068636165982 -0.2709835187041335 -0.26335355169952157 -0.2561348722053952 -0.2550243993029908 -0.25477318580963887 -0.2436855320025275 -0.22027531848835805 -0.20262244646063737 -0.21297638590339363 -0.24999930816219476 -0.28382233128325596 -0.2858683424679906 -0.2596023935186914 -0.2339289484437972 -0.2281771995073523 -0.23310104616477023 -0.2287636036875949 -0.21200511061151422 -0.19801816497605804 -0.19828656532818403 -0.20641928059233075 -0.2083133594403034 -0.20005253230673456 -0.19056104834786716 -0.188989816864678 -0.19486061363559914 -0.20139043645109583 -0.2044114731225816 -0.20493075111539386 -0.20415407326242546 -0.19920707609568394 -0.18603554948584103 -0.16744914013820303 -0.1568268709039239 -0.16896392394123205 -0.20339567618085028 -0.23975229737873183 -0.2554966343610285 -0.24797206295986596 -0.23395635701205025 -0.22790819125824774 -0.22740579020848467 -0.22242745987077417 -0.21233202015307667 -0.20686773315165846 -0.21216159003761073 -0.22235988789941896 -0.22733599289208606 -0.2246596740265843 -0.2204063435012295 -0.21993129036880193 -0.22192863655475498 -0.2222568113109323 -0.22032665159297704 -0.21914221186925723 -0.22026967270945325 -0.2211256807740457 -0.21710361769803693 -0.20572606769679513 -0.1908586575464635 -0.18413352288943435 -0.19775728245490756 -0.23086856645162507 -0.26541647349719755 -0.2814334796515361 -0.2761756644799976 -0.2635968013437272 -0.2556687664013322 -0.25054724458239824 -0.24101967771521152 -0.2281428006096839
-0.22042516372771004 -0.22173260998916036 -0.22617960208892893 -0.2261010105473625 -0.22093133116891137 -0.2160934348968912 -0.21572402831517523 -0.21899198684491425 -0.2224996665616342 -0.2241072235469156 -0.2241785856989857 -0.2241548663948228 -0.22414267321425926 -0.22134962229084754 -0.21179670395326117 -0.19638316568313408 -0.18578487319147519 -0.19443681082704117 -0.2247031408924613 -0.2594146040269925 -0.27637418003520714 -0.2706715712254098 -0.2575228485795203 -0.2522013385395488 -0.25313514910868523 -0.2484956412224607 -0.23465201428478494 -0.22112135635450808 -0.21741938394885474 -0.22132519646295834 -0.22351489277299788 -0.22011576715606243 -0.21591060919053529 -0.2160362940827114 -0.21920519494107807 -0.2207729377356081 -0.21945691440277448 -0.2181178582120746 -0.21854717970855658 -0.21765727435274093 -0.2098524638296829 -0.19378616264145065 -0.17758978043790108 -0.1757654352652367 -0.19642697563323772 -0.23002908596086669 -0.254947206798862 -0.2578311110874995 -0.24603399416966995 -0.23670886184012474 -0.23639098522032634 -0.2364905309838292 -0.2281651312476344 -0.21521879294226892 -0.20873355108656766 -0.21251240067544558 -0.21903474398181497 -0.21971942233977176 -0.21479989274330835 -0.21099086518464716 -0.212233753387642 -0.21592662193939866 -0.21742257603525286 -0.21532798056297495 -0.21172018845997098 -0.208542694270925 -0.20444680915736188 -0.1959492233133411 -0.18403181643252522 -0.17927680148657218 -0.1945483275140379 -0.22846902476729414 -0.2608727167924299 -0.2711266365938929 -0.2591804578941048 -0.2427725083121655 -0.2350178330931025 -0.23155562404951818 -0.22120641759030268 -0.20242723359830167 -0.18376738341255408 -0.17153988776635487 -0.16399500407316064 -0.15816296952618344 -0.15640076893719435 -0.1624672710327819 -0.1741408758533872 -0.18414456842188923 -0.1883133421890884 -0.1896079524719924 -0.19249460916721667 -0.19528512728061295 -0.19159337381294791 -0.18124550352193022 -0.17693342910170082 -0.19383602428008137 -0.23007716716315565 -0.2629624353640221 -0.2720604526381135 -0.2663143947928906
-0.2818033062744068 -0.34777204742832923 -0.4554448001600846 -0.561822891821653 -0.6229566343600784 -0.623267439684023 -0.5771620152595281 -0.5090508318827682 -0.43483217920207096 -0.3595891513397205 -0.28656777584989707 -0.223055407815612 -0.17685310841092566 -0.14964747563223804 -0.1354152241828879 -0.1247949114847332 -0.11177427170466202 -0.09885447275273762 -0.09598689049925727 -0.1109633754781207 -0.13906341833488528 -0.16500413178130882 -0.17735138907812475 -0.1786965466089038 -0.1793448154569255 -0.18380442466508554 -0.1878073053345636 -0.18763656142486104 -0.1869769498089601 -0.19199852146666938 -0.2027064409642209 -0.21278740571179963 -0.21758416025067748 -0.21936344316233858 -0.2236699654778929 -0.2321735135657431 -0.24087688851189568 -0.2450683629039934 -0.24429426876309343 -0.24120920087868428 -0.23632190976518067 -0.22708594905129348 -0.21500624231990517 -0.21110132818177182 -0.22737730551654786 -0.26057000675769976 -0.2903331653799538 -0.29865568684622185 -0.28790907038005426 -0.27484618962368523 -0.26929705838766793 -0.26535405008911156 -0.254057649529159 -0.23771472555898696 -0.22645340531105307 -0.22403782820762871 -0.2237418869420043 -0.21860122532080914 -0.21004325872430302 -0.20360808306039324 -0.20015818220293416 -0.19567082447386208 -0.18793327944033503 -0.17838197541383666 -0.16671366562058862 -0.1493217494653263 -0.12767613335428313 -0.11435196774295457 -0.12217632740393206 -0.14598651606737736 -0.16297271244685713 -0.15594187738622378 -0.1310989854330106 -0.10757023020257342 -0.09394230398750365 -0.08275035957209824 -0.06645108855642294 -0.04982594510850106 -0.042858969338190285 -0.0469921250403121 -0.05450221155445108 -0.06007114489254169 -0.06735758262941033 -0.08244993204618722 -0.10453480471864043 -0.1260526495099898 -0.14041388258590906 -0.1466616068156578 -0.14741342710888858 -0.14641001072563853 -0.1501695461038267 -0.16806963803811187 -0.20400079138399588 -0.2463234254701786 -0.2724856826726885 -0.27165729631967744 -0.2646331138657505 -0.29533167310715946 -0.39337589603037704 -0.5394466844201141
-0.6696820552063321 -0.7215533102079857 -0.6814246842052666 -0.589254101666834 -0.4983763436872493 -0.4330994691259166 -0.38366576301043015 -0.33343997367504363 -0.28168435879445586 -0.2397023294612076 -0.21280833410961394 -0.19286269197967656 -0.16893733520375936 -0.1420785632408482 -0.12613468360660893 -0.13234952025671398 -0.15495933159956923 -0.17575348959036316 -0.183220375093588 -0.18288740162126008 -0.18582807351002412 -0.19023408171734807 -0.18087546089882642 -0.15078746368832383 -0.12245974099886664 -0.14148847769880254 -0.24017381734841906 -0.40113926333313626 -0.5587348807137047 -0.6439487464159633 -0.6348227405303328 -0.5666778669753889 -0.49546544023887423 -0.45137953657237023 -0.4235582854237083 -0.38207183099632985 -0.31038428055299216 -0.2195886643640711 -0.13728598578067083 -0.08455280955063224 -0.061080640746549286 -0.050424855422453 -0.03891525689325838 -0.028021872816023842 -0.027678874425352846 -0.04082673089197581 -0.0590990895412858 -0.07366858816033235 -0.08555318369394108 -0.10195657822822218 -0.12447464260641364 -0.14472032146193695 -0.15180879900233976 -0.1415472283437295 -0.11918349927806379 -0.09971626485605983 -0.10936587610274819 -0.17876618628398183 -0.3199208648212618 -0.5030800516838907 -0.662841052361955 -0.7380713018468398 -0.7134758129986974 -0.6265670636881626 -0.5356868103038586 -0.47736676882665535 -0.4472493060782662 -0.4168819534313735 -0.36670341434660075 -0.30214887352665215 -0.24084531424069097 -0.19131449132568243 -0.14858870515391412 -0.10685342640688043 -0.06920865326823752 -0.043218815810385836 -0.03137939573827625 -0.02977068059240304 -0.034430467956153746 -0.045147097335136284 -0.06229326303864873 -0.08255345840239828 -0.0999060397836687 -0.1107230702762092 -0.11684015631835715 -0.12303918306815818 -0.13187670577180144 -0.14154196333384936 -0.14812986860524535 -0.14833672923697439 -0.1400228350049014 -0.12366299666800483 -0.1064900570793961 -0.10248426153227086 -0.12130409132334848 -0.15512952883623415 -0.18209212350701948 -0.1871798209638844 -0.17670826825114797 -0.16828003305078712
-0.16963380801626618 -0.173071437770671 -0.16945225736488437 -0.16049417942085925 -0.15422816588633384 -0.15311527443518638 -0.1518539640878396 -0.14592012492883752 -0.13806956607280774 -0.13506994886680737 -0.1399399887099732 -0.1491136064101562 -0.15709386390944025 -0.16266703834756377 -0.16925111017285757 -0.17862554580569864 -0.18578010730818195 -0.18372965066652608 -0.17619101648969612 -0.18203084379849954 -0.21938821726822666 -0.28350687223861 -0.3472086754806997 -0.38771698300777274 -0.4077563012096008 -0.42512558693443697 -0.4468025438331966 -0.46206786982151915 -0.4605028188818842 -0.4479571016553993 -0.43999350002323745 -0.44370135466690835 -0.45136096549269455 -0.4511960561551341 -0.4397913582743977 -0.4225729975801357 -0.4052392594798784 -0.38785812029651057 -0.36732860321165584 -0.3434335549301089 -0.320231476976025 -0.300378738579279 -0.2793116591765525 -0.24920511721695698 -0.21221183608485383 -0.1866062155854621 -0.19154810363587726 -0.22337712339103855 -0.2543191338117861 -0.2600554033095484 -0.24363561626567654 -0.22639697024814592 -0.21990910614203577 -0.21566601765250035 -0.20199576203471137 -0.18186120336227643 -0.16844488758155585 -0.16750091146857038 -0.1710348067974588 -0.1688915297318696 -0.16125431150869685 -0.15651289847257305 -0.15962843135638594 -0.1667594438509738 -0.17115252313747314 -0.17078463539013344 -0.16817889502883532 -0.1641766714939049 -0.1555521783435288 -0.14180767852239046 -0.1327732782126266 -0.14305583262600924 -0.17508971228736392 -0.21191449380759494 -0.23251081131658294 -0.23282930009568234 -0.22655692210532427 -0.22589959918307315 -0.227925244645269 -0.22240947774032782 -0.20812345270270333 -0.1955673361119522 -0.19416362457321087 -0.20162578137989692 -0.20804915897239695 -0.2076888028230473 -0.2036684814249978 -0.20183765768235823 -0.20313211043583831 -0.2036315580563589 -0.2005482796969127 -0.1949905751584194 -0.1878803849120312 -0.17689332634698238 -0.16233086226908788 -0.15453562612599503 -0.1674154449456714 -0.2004868217178215 -0.23318557764207973 -0.24385365103968826
-0.23242361324131727 -0.21833199539102674 -0.21659692525817972 -0.2224528466225663 -0.22175593783705663 -0.21054164345221354 -0.19839911277844371 -0.19478937007126695 -0.19863754111515997 -0.2028485276680163 -0.20408130718222153 -0.2044020521174167 -0.20569213214735096 -0.2067199244051992 -0.2061124569328721 -0.20497501792508493 -0.20441005517445282 -0.20219436573954128 -0.19568248411139882 -0.1890137483465897 -0.19326481260703252 -0.21456693391899984 -0.24326591855705731 -0.2606449471429099 -0.2581089753150181 -0.24531959339631196 -0.23686667158670344 -0.2351166737615137 -0.23087449336810334 -0.21865942653941084 -0.20484747611725831 -0.19890052028920943 -0.20143153331100666 -0.20518192648980346 -0.2055123280014217 -0.2049098857403585 -0.20678491794387918 -0.20938981861547082 -0.2086098350088871 -0.2039219218427293 -0.19769666649303283 -0.1900296476835474 -0.1798498394912579 -0.17267923087783088 -0.18091486278891683 -0.20989303572058957 -0.24623880358002231 -0.2677882441175853 -0.26635880991065414 -0.25474830376898727 -0.24900955245606576 -0.24969865832273197 -0.24542643020533275 -0.23103099521386739 -0.21514921555256397 -0.2089628118652788 -0.21274831610379377 -0.21719235129435563 -0.21576106274907306 -0.21147291039201296 -0.2108774401296223 -0.2148220464875354 -0.2177854208464974 -0.21469427069472016 -0.20527452180718903 -0.19246775192397161 -0.18095505536536172 -0.17791801455583736 -0.18915787104242893 -0.21004775063331926 -0.22470131761514664 -0.2200135444057188 -0.19850238997934241 -0.17269012120068641 -0.1500640634309056 -0.13042928408424234 -0.11610357005261505 -0.11496303594848054 -0.1295051622300157 -0.1493798622148856 -0.16094771633254212 -0.1619753968577952 -0.16199733888514373 -0.1691060198932145 -0.18070305040471135 -0.1871945376838405 -0.180772088739315 -0.16025462292257 -0.13236621250460814 -0.11077584695291834 -0.10891805932930995 -0.1278378244605928 -0.15205064421460568 -0.16227730392913858 -0.1533526384117583 -0.1369306360633124 -0.1265356726303739 -0.12388629963442263 -0.1216458134917752 -0.1157170574228468
-0.1116862948073763 -0.1237329863209685 -0.17329906224237684 -0.2837406255319459 -0.4616035006287138 -0.6750292762664293 -0.8568400426019327 -0.9408865911155513 -0.9042439620738418 -0.7796235105779786 -0.6299571127033621 -0.5079201707207993 -0.430000659131558 -0.3795684339674787 -0.3316955564248506 -0.2774192597008311 -0.22731192828572053 -0.19476308741966483 -0.17965659725357025 -0.170170088294973 -0.15748565824347172 -0.1439023541336235 -0.1360504710414178 -0.13463439714949615 -0.1341516620966951 -0.13065343278855623 -0.12585269321225068 -0.12323679387399261 -0.12312624045104814 -0.12332846828738454 -0.12309245826297212 -0.12406618519568048 -0.12706623412530296 -0.1292974403849117 -0.12641526898467959 -0.11892493584281641 -0.11645429215732599 -0.1318675859594017 -0.1669410599337166 -0.20546447977506513 -0.22618731673678905 -0.22390152546115105 -0.21342164880346276 -0.21106014401038453 -0.21693235471374067 -0.21949140362588862 -0.21384941917221512 -0.20874096197667696 -0.214435893547302 -0.22936487028679212 -0.24271726760758996 -0.24781878455382023 -0.2484779155772527 -0.25198682659672034 -0.2594687450587175 -0.2648512207769746 -0.26105969226321873 -0.24539698077503586 -0.22177566402100504 -0.2015245873681464 -0.19915739946509964 -0.21980143654583742 -0.24949341409263034 -0.26478839960028844 -0.255781614926952 -0.23507367191540765 -0.22060717785351272 -0.21462467480354183 -0.20531129210164567 -0.18626797351558771 -0.16642907060059137 -0.1584257820804372 -0.16261159631245442 -0.16774366056487933 -0.16573456114031437 -0.16027074057477952 -0.1594378361076526 -0.1642717973044565 -0.16839401160793577 -0.16647397233356245 -0.15822359147803167 -0.14542914105189314 -0.1319677468612489 -0.12791801385131424 -0.14493576365648875 -0.1811777572287264 -0.21639545056889173 -0.2301101811302173 -0.2228317366610766 -0.21267522806692427 -0.21220261999335593 -0.21607124808204028 -0.21304998631811625 -0.2030024561492295 -0.19633636552079808 -0.19980582300433564 -0.20923634521234152 -0.21692435772438792 -0.22125524278206773 -0.22592312685525562
-0.23223072055541055 -0.23633738063966478 -0.2344933257954758 -0.22760639935966906 -0.21839324275863897 -0.20691634124026548 -0.19417676957198896 -0.18946613437960233 -0.20581213936804604 -0.24281089645010687 -0.27981630315508016 -0.29440130206463755 -0.2860178581124169 -0.27430903323130473 -0.2742602958877119 -0.2804804163366459 -0.2786235332528995 -0.2657237972845519 -0.2529249609917622 -0.2503948945493868 -0.25608765627349456 -0.26096017181534015 -0.2606742582748524 -0.2584071929043743 -0.2580456412009822 -0.25901071026162403 -0.25876601869634225 -0.25718065584451466 -0.2554123725772235 -0.25131621493845957 -0.23989523635888593 -0.2216159498611427 -0.20885865472897827 -0.21786805355824496 -0.2500519631520692 -0.28497442888793223 -0.2983244292511582 -0.2862800620072234 -0.26622953224622364 -0.253146781955311 -0.2428439532096948 -0.22308997916133952 -0.19517727474685045 -0.17516689283091577 -0.17299398180981765 -0.17806137444345532 -0.1712586333746398 -0.14851458289423833 -0.12613776920683206 -0.12167686114196238 -0.134619457045752 -0.14987090959023436 -0.1569116730485506 -0.15881901481487795 -0.16166614966728798 -0.1628360066420946 -0.15707623135378088 -0.15029920465573385 -0.15584695070483098 -0.17367583237433662 -0.18490428424330205 -0.17964104503363856 -0.1867612220558696 -0.25981579268071586 -0.4223927486419987 -0.6294128731720601 -0.7887299230290252 -0.8254763546249252 -0.7333387342777431 -0.5742203445019034 -0.4300624292281367 -0.3443920540331339 -0.3004713587280272 -0.2539705104899925 -0.18514065877275726 -0.11523539168550621 -0.07486437140986162 -0.06737516838075219 -0.06989746978707442 -0.06458303734957459 -0.058761895812527734 -0.07169692015593934 -0.10733424498735752 -0.1466232517001703 -0.16719473863195733 -0.16581814776089576 -0.1579543691486385 -0.15776701431861412 -0.1640994039152083 -0.16704634707594118 -0.1629058751374761 -0.15775808229815655 -0.15794733022036403 -0.1622934709754761 -0.1654990514632665 -0.1660360271472949 -0.16737865302648483 -0.17217919185472483 -0.17829288562712844 -0.1815617273801768
-0.1805929018023758 -0.17736324709281748 -0.17439592609274074 -0.1730908540241593 -0.1743162164124271 -0.17879880875129697 -0.1862044374299225 -0.19426427407907737 -0.1989731696618864 -0.19607803477605243 -0.18475720320607383 -0.1722949309726537 -0.17276239973295102 -0.19476280346959585 -0.22872210424897488 -0.2520874560609409 -0.2514228462564016 -0.23594769694720394 -0.22528792341237705 -0.2271007844202109 -0.23208824068157596 -0.2294677386505229 -0.22060891810302477 -0.21483352718636314 -0.21645554708394804 -0.22115736783947954 -0.22406151540843322 -0.22617102818346518 -0.23093514994041836 -0.23792049964731388 -0.24319284540653988 -0.24473064722203786 -0.24454160324735982 -0.24556472555455586 -0.24859663980323307 -0.25192264388748753 -0.2519570841228904 -0.24582403038822614 -0.2374260254811952 -0.23952332978858945 -0.26252350513608574 -0.2991163384537393 -0.32676089704698963 -0.32982699648570857 -0.31499493153034885 -0.300842728053905 -0.29621466014059833 -0.2941087695890475 -0.28476099475282274 -0.2683006856552786 -0.25255491002665803 -0.24252827994809995 -0.2359963020321284 -0.2285210185952645 -0.21916995904887207 -0.20993451348217607 -0.2017810375663277 -0.19388965152141016 -0.18637460416380286 -0.18101505847902816 -0.1777634099125492 -0.17193899115266223 -0.1576829049286818 -0.13608175175031395 -0.11918372235030276 -0.12224398504830858 -0.1482666935254527 -0.181235706797586 -0.19927410471000692 -0.19580975630242298 -0.18415622594730627 -0.17997659052503012 -0.18416893827175077 -0.1869495034341409 -0.18456837177179436 -0.1844822459589642 -0.19323945667889209 -0.20569735254264543 -0.2108460447992436 -0.2056730354064428 -0.19819046626859266 -0.19649487475011138 -0.19919274857438504 -0.19914214585690482 -0.19394178808223594 -0.18849668219986954 -0.18679964431162255 -0.1855042068490818 -0.18031471878735972 -0.17753803420906206 -0.1918027065046772 -0.22759993650367963 -0.2682647810180986 -0.2910622809010934 -0.2919493576379265 -0.28793581370114835 -0.29411910134010955 -0.3060799423807925 -0.3092512130026372 -0.29980718579009397
-0.28878487933925956 -0.2867315555942832 -0.29137192019779506 -0.29304554472136124 -0.28769312393210167 -0.2799643042856552 -0.27506640559777645 -0.2722291105154656 -0.26752166255613763 -0.25967319183902854 -0.24988878403302395 -0.23801323174427316 -0.22431047722156983 -0.21565680056474035 -0.22314126474427917 -0.2483903584394319 -0.27651309711478783 -0.2893944053422931 -0.28486092185437634 -0.27667754471385525 -0.2754758999197241 -0.27624974724060425 -0.26800499980054726 -0.25083011533570754 -0.2371788355498611 -0.23675177988881785 -0.2452919862200641 -0.2504538200187831 -0.2458228861536493 -0.23635712057558456 -0.23107876164225155 -0.2329902511956865 -0.2364128469347538 -0.2324673816521228 -0.21716175176229147 -0.1967680199479894 -0.18593888671905764 -0.19636874686838027 -0.2238666419570604 -0.2494864570604635 -0.25763966907150854 -0.2512782663107898 -0.24507880578765717 -0.2457864987424237 -0.24566806938201674 -0.235984447343188 -0.22005539940326582 -0.20834128781892416 -0.20460758443533067 -0.20331660336458435 -0.20004773079821603 -0.19810491484150958 -0.2020722374579909 -0.20917030743975631 -0.2115067943397282 -0.20526688135070373 -0.19369751636379468 -0.1822073812057032 -0.1753941865098739 -0.17847996299589686 -0.1948700295142039 -0.2191595268059879 -0.23777692713001994 -0.24149082443680417 -0.23490818226928178 -0.22963833399429234 -0.2299401739590393 -0.22961357863312074 -0.22269016340003076 -0.21233081187763234 -0.20665974224916542 -0.20850850548464794 -0.21279185104641954 -0.21371713213639285 -0.21155964383229278 -0.2108569337926056 -0.2135275233802628 -0.21580121798649926 -0.21185613046571858 -0.19978243487070563 -0.18515337264017342 -0.17959345725238426 -0.1927078869699833 -0.22150228447158096 -0.24928169843650952 -0.2597955679927748 -0.25288837832457484 -0.2424557869007553 -0.23881463929294194 -0.23801342435247225 -0.2307182526367777 -0.21683648506234873 -0.2060230001645331 -0.20509538917595452 -0.21028544434705168 -0.2133896310167444 -0.211793147395821 -0.20941494449303663 -0.20963589895683538 -0.2109893588080004
-0.209963660171908 -0.20472788636974107 -0.19524105589381965 -0.18380590507695566 -0.1778445556062691 -0.18698673024094933 -0.211612618751996 -0.2370395460377578 -0.24592957928786413 -0.23670170031912188 -0.2243091079022057 -0.22177143946505556 -0.22607296803624688 -0.22526313098885686 -0.21544133071562063 -0.2052218443468249 -0.203777235320835 -0.20967838659919238 -0.21429153413594348 -0.21321849749375107 -0.21043852368167926 -0.21166379829374998 -0.21725307349794276 -0.2230615096959719 -0.22550332921639243 -0.22292965574526757 -0.21410441459215593 -0.20076510421853253 -0.19234603980169693 -0.20117803028208964 -0.22773484390700924 -0.2550306518877581 -0.26446300285794744 -0.2557018172892079 -0.24478557116740016 -0.24305873745624634 -0.2448133037578224 -0.23810169974687231 -0.22203279241046192 -0.20799666792910992 -0.2055911738238843 -0.21231314511734148 -0.2181519008139868 -0.21723074437880505 -0.21264868714667468 -0.21087131169664958 -0.2137314622389564 -0.21694620325406985 -0.2151554795575021 -0.20597930150842417 -0.18865081924289426 -0.16231967335776623 -0.13028565932551006 -0.10456359354560382 -0.0989414348404416 -0.11396058528350023 -0.13408374559227076 -0.1448726592283796 -0.149173166145231 -0.16022175165299396 -0.18138301676463836 -0.20081146782263484 -0.2074851724562843 -0.20555881200721965 -0.20852487504414907 -0.22319732235043563 -0.24456856824872233 -0.2650186412085818 -0.2833225367045638 -0.3025996994461726 -0.3222482566853535 -0.3355867797041069 -0.33611247855661963 -0.32373455677779706 -0.30326647051679645 -0.279245263007621 -0.2560537038560223 -0.24183640866412864 -0.24552896416874764 -0.26604042130838734 -0.28813966378829986 -0.2944807964303287 -0.28166855594731954 -0.26166250759146914 -0.2482706650417454 -0.2456717379696776 -0.24966944044054729 -0.25519520788654454 -0.2594495056983902 -0.2600336060272356 -0.2542246001194497 -0.24144551369161407 -0.2250177253147209 -0.21020827232612901 -0.20028403884702672 -0.1939760554423939 -0.18620203941348212 -0.17201431765627556 -0.15173733008106008 -0.1331938340940888
-0.12749229629686998 -0.14003429260230424 -0.16468292337626375 -0.18827785914474582 -0.20227991912482182 -0.20922931461052735 -0.2169400237480044 -0.2282296806762272 -0.2392586991172861 -0.2475543822680061 -0.25748711152570797 -0.2746948353669079 -0.29673643881802625 -0.31327254559941525 -0.31690673666194336 -0.31188961593174713 -0.3102313350214063 -0.3192627318996059 -0.33337971934443733 -0.33767872308447594 -0.32007341083746155 -0.2818628615888313 -0.23842873680646695 -0.20907623681906448 -0.20315710665678396 -0.21367464002505895 -0.22480171027073748 -0.22682694495276462 -0.2232609398353253 -0.22297237350107718 -0.22783072741335456 -0.23078797274363824 -0.22469804841991053 -0.20935416027812334 -0.18982856466119002 -0.17168350981237077 -0.15940564747241823 -0.15654974546034703 -0.16428389570742047 -0.18001934157514962 -0.19902100068128437 -0.21741899326740374 -0.23276818404567629 -0.24193361375436478 -0.24069770421602352 -0.22822855773023587 -0.2118139109555076 -0.20310071350777345 -0.20643703239796454 -0.21309056508358284 -0.21081876941999655 -0.19827306341888232 -0.1859705278837055 -0.18257107951705165 -0.18403556181912642 -0.17906441099467504 -0.1636728325815498 -0.1470586984029314 -0.1420867534323184 -0.15201838323400751 -0.168416737023656 -0.18091439751115118 -0.18650658741986065 -0.18898638910028157 -0.19156420350403944 -0.1920882517557258 -0.18603961913526923 -0.17432498984563463 -0.16733980809011642 -0.1781581243308024 -0.20861916010923973 -0.24361670281120645 -0.2634354721262755 -0.26248053491924306 -0.2523002691430675 -0.24418330238040847 -0.23195835761205444 -0.19811968701829427 -0.1412148760964842 -0.0957052363095046 -0.12026407533154444 -0.2632017328233301 -0.5290753012579241 -0.8559452596181684 -1.1106258725026994 -1.1311820248708049 -0.8432980850874578 -0.3935290014505172 -0.12163278772397781 -0.2750353321640717 -0.732041661552117 -1.1253968912001366 -1.2365661797115644 -1.0846157953914883 -0.6221048633712679 0.3324623134867405 1.6573495176739725 2.690732703682706 2.7960830904704963 2.11527860721259
1.451389543748336 1.3621934662938 1.6353362051754663 1.761752364707785 1.6543611915943761 1.6324412846088436 1.8250952453905114 1.9290225777543561 1.6385967557345773 1.081681003200261 0.6571322536277208 0.5478384651952733 0.5674516512805571 0.4645626195895837 0.21933158668021832 -0.013380665467034735 -0.14143711559211256 -0.21028970052355386 -0.2787395507633335 -0.3253248260550089 -0.3048395939081925 -0.23597766615436302 -0.18916275827219464 -0.2089597549740986 -0.2758110615944188 -0.33326641876596985 -0.3380858728702928 -0.29931979961997435 -0.2848273201031847 -0.3660453438653083 -0.5149624957277849 -0.5615456460082622 -0.31972892529528807 0.1942373944629157 0.7021144822091373 0.889651384932079 0.7023821043635546 0.37830425028285475 0.1855702485117924 0.17479649349069507 0.20386202243515267 0.14887275892354646 0.03087466964481529 -0.05322857854819556 -0.06387050644985334 -0.05005581577412884 -0.06881697027899301 -0.10931402083850096 -0.10818621212043458 -0.02646896312905051 0.10382690553871805 0.20892249642660765 0.23910213188988566 0.20530321348265063 0.1610953242520824 0.15250359614851455 0.17713036477959682 0.187211591425121 0.13905238911686268 0.04439178361003602 -0.033422721632906015 -0.040965560693707444 0.01221151129855571 0.06885570242611569 0.08683434344106528 0.07527140955986401 0.06951016362386521 0.08565388022863794 0.10990588422592827 0.1247537011577743 0.1308044176109638 0.13979929878657102 0.15612952011344838 0.1730516824566647 0.18368536542676586 0.1886646098862439 0.19269594581121127 0.19872843360458037 0.2070663517098906 0.21566754990323792 0.21812379006741445 0.2054533180255618 0.17593124695863183 0.14195640474674023 0.1203909651381472 0.1146113264413864 0.11234011408456175 0.10348561449447945 0.092633377721242 0.08885958532950672 0.08949538595267953 0.08123303299990504 0.05584667279701581 0.020734582439144698 -0.006632342601950498 -0.014573197336722014 -0.007797717913730644 -0.00027272482768695946 0.004114923304617308 0.020306113445801056
0.06577178450292748 0.13582513394548784 0.20296272290797257 0.2462763684135806 0.276481695283697 0.3221007963727415 0.3898005942746016 0.44828307026294484 0.4595415070847335 0.42189879273298164 0.3725428027769996 0.34701311117124534 0.3450680898156518 0.3401132993211428 0.3121803553651887 0.25777433414309225 0.16832175658484064 0.023521151140055048 -0.16283523222211105 -0.28944785808798645 -0.2081039883045618 0.11975211895260343 0.5008019965562891 0.6206315911793983 0.36350882604157103 0.013573477648974553 0.03223917173972904 0.5625616458576125 1.211868381457432 1.4264238857560778 1.0716992317540979 0.5456514378448267 0.3055778795305274 0.39307033654797885 0.49427184863200224 0.3788868263291657 0.14340981533431083 0.018157438651584614 0.060161577552353226 0.12155935465148812 0.06928574478670468 -0.06235065911544694 -0.1501899308744111 -0.14348633484820292 -0.10138612752599307 -0.09822953587868245 -0.14055787811931272 -0.18345450078715744 -0.19532150480373836 -0.18207998460077826 -0.15781418187145335 -0.11851422548847855 -0.05702049645671484 0.009732515585811886 0.05038356993029309 0.05843049880992167 0.061170008867529706 0.07722185471976843 0.08480126357686397 0.057506004103776466 0.02256394198812406 0.05092201938371698 0.17862780101541453 0.356722223803042 0.4909136819455236 0.5204367390442978 0.4537886039165205 0.3468936212696359 0.26189199874556895 0.23202744192813954 0.24245798740145483 0.24509867304728766 0.2066969526934025 0.14327594438628385 0.09808872429409167 0.08947083777752397 0.09638140456636715 0.09744200186775354 0.10234679995441263 0.12751846662333616 0.1573105897497181 0.15784136069662297 0.12479107778769848 0.08717974162484968 0.05878185948318892 0.01725512303785309 -0.04731351036707628 -0.08336138678064633 -0.012914254674113255 0.17290815898778977 0.3687303251487361 0.4194384254609062 0.23624031110985763 -0.11716281667095917 -0.3946728385689225 -0.24579477392807528 0.5226240664904521 1.6510376227864108 2.498609452185004 2.589228485287157
2.0856738942115345 1.5945959052836467 1.50216377231683 1.635325630650066 1.6006297388290027 1.2959698528279946 0.9647712067029091 0.8278081862920869 0.826293817911546 0.7613036315766097 0.5743770755693707 0.39763663796131643 0.35827577936911487 0.4222552356220335 0.457903382581151 0.40160880951585426 0.31173282641646705 0.27375115006536765 0.30046839126568636 0.3415614554617127 0.36014799568242056 0.3669471496193231 0.3843386413782699 0.4069561332611628 0.41163759274587675 0.39157281859044474 0.36415320253898703 0.34980109764300543 0.35619324578293265 0.3798407890744115 0.40808385816228887 0.4216961038319308 0.41636336106286065 0.42554181823878867 0.4966343201838137 0.6278987193633216 0.7483899234970943 0.7854873805560604 0.745420399585298 0.7033595863789989 0.7128370837048084 0.7473076433547359 0.7419113477137748 0.6757584886798966 0.592329779794577 0.5430008445240208 0.5324529322584619 0.5274896169154237 0.5018875654173257 0.45578447508661346 0.40142243677191436 0.35312304819903984 0.3321576057374677 0.3584637563242702 0.425377648333641 0.4966483771828135 0.5428907968944905 0.5736557224119222 0.6199337115568742 0.6886413602455597 0.7482016595801001 0.7609827210392739 0.7200420145213264 0.6505363732775955 0.5831594479579134 0.5318817500252088 0.49019821425959587 0.4347356540053809 0.3312909729890041 0.16495249667700246 -0.0038412719809846844 -0.034091663725266765 0.17526546888678293 0.5354762312429395 0.8014212991506657 0.8078778045484871 0.6377091743516701 0.5064766376595701 0.5107779525688028 0.5525896840196213 0.5025831249849658 0.36803468204078527 0.26805871843613177 0.2836964248239953 0.3782840173377153 0.4585692870095528 0.4765066170230664 0.45605407784677915 0.4404269987884718 0.43960216228374027 0.4354960478985412 0.4230786800973187 0.4264463140021452 0.4680036068320474 0.5327102487764865 0.5773148917157055 0.5765736062712382 0.5493116692762908 0.5318506588593359 0.5335263195978766
0.530586318532504 0.5028517139866462 0.46130324322319755 0.428267951870393 0.39822249601960336 0.3390450367508939 0.24203031987434018 0.15454970799430034 0.1381645933236689 0.19313561943488974 0.24852834591353404 0.24070656883041675 0.18563790074216815 0.1568404988377111 0.20129538536173305 0.2859920212130668 0.30278317026921886 0.11036740765134291 -0.3631564523824296 -0.9600097773463175 -1.256554727391124 -0.8548280437681267 0.17760538666433617 1.2454358307492523 1.7390932314321037 1.5975328382378304 1.2720852380531655 1.169081640745769 1.263182047537306 1.2786257398087562 1.1001520758861298 0.8804532210291026 0.7958002850237562 0.8318165478472354 0.8484843797366414 0.7746366583110419 0.6656516388186647 0.5937940730568176 0.5537206341848808 0.4995533304262877 0.4313872315495608 0.3999282322085872 0.43450156643936083 0.5063747578897975 0.5695982947786896 0.5922850023018306 0.506533229455869 0.16463681419966802 -0.5447067747458142 -1.4684223154035019 -2.154658191271022 -2.198019399449892 -1.662378029846093 -1.0503615818805052 -0.7483793559340343 -0.5523994229017896 0.09682047385692748 1.3479776801341317 2.5704932141241654 2.952456623605626 2.4223362742316294 1.7449805279158133 1.6476921697409275 2.0615249527712365 2.3564815827753938 2.148887603282475 1.6458930230949098 1.2440069070589528 1.0426538928542268 0.8661076715586712 0.6135581423471372 0.3983589465152302 0.34440794197288827 0.38917996113853975 0.3675404217714808 0.22977922792409455 0.08970616707387372 0.06134001180577536 0.11878026654445893 0.14774107743284723 0.09099798986386544 -0.004174146993672649 -0.07036746050596897 -0.10748029146536045 -0.16461800419493475 -0.24762230551904593 -0.27898011393779387 -0.1834140667511197 -0.007607711848126764 0.09549692542903443 0.03232841477622347 -0.11608046901855373 -0.18872047257491195 -0.13563993794352502 -0.06411159756892809 -0.09690673321623858 -0.24290187945115568 -0.44349304105209075 -0.7069150288516078 -1.1126494052902245
-1.6458507830201907 -2.095969486656005 -2.2235124241007944 -2.033981396983719 -1.7980692674717043 -1.7611801746485551 -1.8975712362718742 -2.0003625296249297 -1.9565388093147222 -1.852125840033475 -1.8207667364176303 -1.8741528889136867 -1.9197284350183843 -1.8971415805077452 -1.8405989601622452 -1.813872897519447 -1.831130260411287 -1.8616542489698173 -1.8875346120056982 -1.9269415877244114 -1.9997115175637248 -2.089493785069535 -2.1534340632185094 -2.166443703535448 -2.146138644516237 -2.1307758526493923 -2.1386967159036536 -2.1554057889854095 -2.156615780423733 -2.1342897218778054 -2.0981909113328507 -2.0619155743619473 -2.036278511114575 -2.031353947031928 -2.0527961689426437 -2.093336806446581 -2.1351455963055344 -2.1635444565882063 -2.1739041202803646 -2.1660246596926434 -2.142718548267879 -2.11945694327103 -2.1228257644737205 -2.162301550010589 -2.2055076011493906 -2.2004595847039674 -2.132700653077924 -2.0504294267582983 -2.0186278471281334 -2.0481065257609092 -2.08317711553135 -2.0679459964262707 -2.013861097720555 -1.9836086154931079 -2.0108752172864 -2.059544875839849 -2.0724746646403336 -2.0416260542367732 -2.0107253410868062 -2.01703604550165 -2.051383868707862 -2.078006408207579 -2.077295237361739 -2.05844630537395 -2.0368512198599977 -2.0108661426301815 -1.9656419199753834 -1.8978911319566654 -1.829154179320751 -1.7845895142063646 -1.7614330006664976 -1.7325428179363835 -1.6676856753660512 -1.4996598969434733 -1.0611171432915694 -0.16593833043945522 1.1083586304706676 2.23716095525661 2.519236079784341 1.6557926296767465 0.05690608994932378 -1.4438478380070316 -2.1818554569361797 -2.070710156550825 -1.5781463782003378 -1.3159893565506422 -1.5335589504279121 -1.9441213912908553 -2.081159348892319 -1.8236582299988073 -1.498750409751478 -1.4638802263987587 -1.7055279458561372 -1.9265397449615516 -1.937454041626736 -1.82737165990125 -1.7669696672679331 -1.7774160511409982 -1.7353342406984462 -1.4942857058392136
-0.9241829149063556 0.053497394588067626 1.2975945317340711 2.3487470603425358 2.718334082656411 2.3818508387234982 1.8615686478467628 1.7017673095797428 1.9283854306202024 2.1102884123162498 1.8556559947295679 1.117777033489467 0.12430512314789613 -0.7355403581394921 -0.9506830326459157 -0.1589490290505186 1.3679005163673303 2.6852046241460745 2.953492683827422 2.285649354478199 1.6025634597557916 1.6057027552662275 2.098386658264276 2.404545427384491 2.2347826107408633 1.9168385818610736 1.8608738211498304 2.0615138172372687 2.2130092775331716 2.149043208113881 2.003082391106373 1.9691660377000189 2.051346090151552 2.1063986384384683 2.0550755437938104 1.9628396225732394 1.9210149977631115 1.9220391658377798 1.8925174358194832 1.8199149524227023 1.7918968987576809 1.8887945546421188 2.065193884795485 2.180773328050601 2.153875291721841 2.048925317972537 1.99158589791155 2.025971866357426 2.0883209516528822 2.105680003961033 2.0782417511307694 2.055409351975256 2.063005872059788 2.08057787523019 2.0807074333560105 2.0652381003084153 2.055477546460378 2.060959724575695 2.0707403090965677 2.0720097986334123 2.066126398674974 2.063029941831886 2.0663800864393305 2.070139269236234 2.068284350220662 2.0627623274553546 2.0581789101102625 2.0379299165974767 1.915916196217154 1.4984681265209945 0.5758928195770988 -0.8012183895546569 -2.1265914086896798 -2.72572054262831 -2.4061672441199193 -1.7241551815790408 -1.4349150567528521 -1.7225167144538296 -2.1233869492752753 -2.1709759806538242 -1.9137349049176402 -1.7324577534683583 -1.8169711521558523 -1.9924987056369476 -2.0196273637572837 -1.8984357181806915 -1.810983306241645 -1.857034759947525 -1.9514035885696137 -1.969451497311451 -1.9065198510045755 -1.8557741353005386 -1.874770914910017 -1.9270764381420225 -1.948563321130667 -1.9274387077992337 -1.9012612969684555 -1.8989155485411402 -1.9111998722494044 -1.9141277090660822
-1.9003870814132342 -1.8815329430827388 -1.871216117337769 -1.8750731440068102 -1.8913640247722356 -1.912893747290954 -1.9291430847869762 -1.932970847509295 -1.9273728460052766 -1.9225499633532581 -1.924448829799083 -1.9282723073133197 -1.9250298064915914 -1.912602274823526 -1.8979579470659307 -1.8891888726089043 -1.8875873378689199 -1.887999844607966 -1.885288285150446 -1.8788423029487 -1.871532728779316 -1.8665502539295244 -1.865333002524904 -1.866184609197918 -1.864700866924004 -1.8580090493694548 -1.8477749337315188 -1.834484350145672 -1.8099347301682225 -1.7657325289546781 -1.7149024732171618 -1.6937297156314501 -1.7266046618052262 -1.791374665443215 -1.8352379030072021 -1.829004024776862 -1.7939750088759134 -1.7704279936025764 -1.7717847005352623 -1.78001060942552 -1.7775787661224356 -1.768490323124433 -1.766405173750935 -1.7739116306218798 -1.7809190292922672 -1.779208855596052 -1.771993974898147 -1.768705604198474 -1.7735531224347114 -1.7805459202154903 -1.7776720896740275 -1.7501535434387603 -1.6737013518624033 -1.5128575029701257 -1.2553902151568432 -0.9679588087988559 -0.7854995734771533 -0.7843019153226299 -0.8576080582041166 -0.783696125771251 -0.4696341122733566 -0.09208503507042073 0.07095885147754226 -0.049740576991656175 -0.21896566988061367 -0.11428993367895857 0.3965315415825028 1.1726329913866749 1.9134897770425034 2.3419132905843854 2.367979187609211 2.1491067490492566 1.964028915320946 1.9740323889172051 2.106247108750291 2.1834205638596482 2.136578680806749 2.05301324335913 2.038007922589925 2.08965117926365 2.1286067206545076 2.1069510389539206 2.0380229003269728 1.9250546817631613 1.7271969842488164 1.460322873943975 1.297399600011224 1.4349080271813064 1.7929224683399845 1.969671246169759 1.6289456892851546 0.8523018549643082 -0.03045333957594636 -0.8411373197837871 -1.5632795069018501 -2.0565193624957323 -2.0949881899324696 -1.7479181099792562 -1.444861177316439 -1.5082035249250458
