5.9350759830869894e-05 0.0007962751223390203 0.004974207164792705 0.019193052637824642 0.05113078427689401 0.09952976823270883 0.14628735381911248 0.16676524244586247 0.15531982918291776 0.13642932184279238 0.1414662541971066 0.17447626453951956 0.2083951585581121 0.21633242411141887 0.19914191888257923 0.1783020803641363 0.1682364704220864 0.16373096289590827 0.15341195488716244 0.13730399056618525 0.12603289933979445 0.12565482480547896 0.12940772480109358 0.12691653010371284 0.11875495084673043 0.11721894056657596 0.1305852117693061 0.14959996570201298 0.15504409554415863 0.13979803217915235 0.11837695504900689 0.11121709636479989 0.12328927121263109 0.14252737887098382 0.15608205518406404 0.16168290658750348 0.16343065861948664 0.16331314732160507 0.16061484067385895 0.15636302296366544 0.15390237168353513 0.1549367110601276 0.15748911612901786 0.15871510501116132 0.158371567095029 0.1581920963778214 0.15836613176921194 0.1563857203568311 0.15058709502271947 0.14448575644165695 0.14546069798587244 0.15634291685933568 0.1683320872835823 0.1665332987111909 0.1458914925358917 0.11932217721585524 0.1062016377270596 0.11364667444345884 0.13213330280289512 0.148158791477822 0.15663515425249325 0.1602493073311019 0.16151716387253692 0.1596243702878024 0.15424225292146315 0.14893048657317925 0.1485716967000077 0.1538559590576076 0.1601461885427469 0.16280085043018191 0.16246256647177537 0.16337550256335887 0.1669437151973149 0.1694799914445826 0.16772831739904384 0.16469116892658517 0.16672162879100066 0.1745575391805508 0.1808515177483632 0.17930652410047607 0.1736553307004228 0.17277195340803073 0.17724194848061983 0.17667995645975146 0.16323042000687893 0.14325585368944002 0.13119447516484817 0.1341167589895192 0.14644650475318044 0.1585497704716872 0.1659679884433979 0.1694985428229795 0.17026168114005075 0.16812200026591817 0.16397275244455364 0.16034375379736468 0.15877980886880724 0.15841022248669667 0.15802436295885522 0.15795884830306206
0.1587596428944528 0.1594502373598717 0.1587852119881751 0.15742694755624936 0.15735169657068218 0.15912918868120612 0.1603523409721227 0.15723939936373668 0.14944928161762613 0.14377949630960776 0.14880961869152595 0.16205529407892583 0.16702309767171394 0.15050392104647667 0.12120042530133927 0.10330609880329325 0.1104470315322053 0.13224343517824294 0.14869680668756802 0.1519061081173692 0.14892807231333582 0.1471299387140361 0.14457215687968647 0.1371996984588661 0.1297349044779891 0.13236487398387134 0.1466521518579019 0.16117154748744836 0.16472134079880765 0.15987688948058007 0.15855003968097095 0.16589656297465155 0.17412113990665626 0.1731254943805259 0.16273615510541875 0.15140984108909192 0.14515382326031293 0.14115886321265533 0.1323774713582114 0.11622545356371376 0.0979777325617947 0.08619374161602107 0.0846137417343534 0.08810332282098779 0.08775619010685048 0.08118255229464509 0.0762906648403077 0.08281724794550276 0.10106077157800768 0.12151266656155078 0.13550774105322633 0.14354614151643122 0.15197798599785461 0.16372160122756568 0.1749250891581182 0.18055316451318962 0.18065418956644694 0.17948063786204396 0.17972668070844391 0.17999541595004878 0.17806683759993133 0.1744791993258401 0.17181358613098904 0.17194375795523917 0.1751100632945892 0.18027096336368958 0.1850574149845926 0.18708181069402408 0.18735253184659917 0.1904681255223817 0.19778845330906542 0.201684549689478 0.19203963922080383 0.16953632152951645 0.14740542884669774 0.13787797627277756 0.14150287982792725 0.15209196995818863 0.16638915915630084 0.18359534584237544 0.19923632712528877 0.20668670398218747 0.20493408089890047 0.19967122715380808 0.19560450608988822 0.19183137792646474 0.18634073508099944 0.1809154724036823 0.1782682530136432 0.17688030487142611 0.17273260019335457 0.16546835786695058 0.15910226998451013 0.15604782168695416 0.15392012307927708 0.15053193842042376 0.14945886381232468 0.15602313065604292 0.16725641342789874 0.1708713565794495
0.15838407906430738 0.13702098412668334 0.12371364157024983 0.12705468662207392 0.1390867192080931 0.14605438934383874 0.1435956437594247 0.13840966308665345 0.13709599803535183 0.13778687797653352 0.13411024723030096 0.12457139638380758 0.11497385160595355 0.11172725757675064 0.11485532658666932 0.11847645730532176 0.1174007207395532 0.11253510121562421 0.10980523188275104 0.11386654349420386 0.12282989207643764 0.12976870686781988 0.13088365038511485 0.13203708555600638 0.14362115393469307 0.16674494150582583 0.18959852383940207 0.20464591126560638 0.22736971516831578 0.28683272760955797 0.3893167929077711 0.4947118753130578 0.5419219021444271 0.5080200458586344 0.4374340608784953 0.39789131470043065 0.40462584236965987 0.40240036518528677 0.3306039494256705 0.1943145178660452 0.05920700468000256 -0.015947198296863387 -0.02777383824662218 -0.013363022565157312 -0.0049989063783141595 -0.008680632375971163 -0.016808285788078203 -0.02460088430870496 -0.02933746306459293 -0.025115995137397606 -0.00981893350157559 0.005990230597961917 0.007330244045558238 -0.0071297771088366995 -0.0224979140370218 -0.024726627390406954 -0.01434570129096964 -0.0013581843294788308 0.0075817982226988314 0.013063102016589096 0.018352414957530705 0.026310689674659896 0.03966474247174984 0.0597551902670744 0.08385283464867291 0.10600422551539981 0.12186524631423369 0.1319085176988967 0.1393024614036178 0.14561878429576186 0.1498411847875016 0.15114078364345357 0.15074741760332028 0.15042364680361126 0.15100680300333183 0.15402244278177116 0.16253812557029276 0.17686216256715698 0.19021388013805238 0.1933613053389245 0.1852411428511089 0.17575025451808268 0.1761541804372143 0.18938539355023898 0.2115356937395894 0.23952741406681427 0.27302257299618526 0.30926869601938023 0.3405086325768578 0.35982387433543495 0.36905050767730396 0.3781475174366437 0.394871039126898 0.4156635476820995 0.4285518358004476 0.4255611459537285 0.4106096410100725 0.3941182789124501 0.38420031910073965 0.3918129233289628
0.44408934490047347 0.5702390390647605 0.7460438930602219 0.8588556199037108 0.7781331534452562 0.500131747268545 0.19793094951606188 0.07369322221989574 0.1560044893673012 0.28494292504209917 0.3046703443664638 0.2217872875367842 0.14852181215208807 0.13909955342724212 0.14096511772009065 0.09436120962364554 0.01824617966028675 -0.02678529418927569 -0.024448323084419927 -0.014751602591659505 -0.030806230132422077 -0.05756572880862995 -0.06128032921273498 -0.0361706533350943 -0.004014057880609721 0.02033035042752718 0.04139047174260661 0.06244055598954272 0.07264570253342285 0.06383390367604483 0.048330690308297966 0.0481114240478998 0.06945023098925485 0.09723060106864641 0.11438168626394103 0.11989359797431173 0.12492153544871293 0.13599685543613343 0.14740548360247385 0.14972623368294233 0.14164539928549194 0.13094586947943168 0.125475420172321 0.12588991642198322 0.12745285646844706 0.1266810938842081 0.12475949902563399 0.12517433889916868 0.1289747593503041 0.13285759118350438 0.13342423181873087 0.13388159432417937 0.14245584871828557 0.16003765555698754 0.1735140794066783 0.16911929166316725 0.15130117760711287 0.14028509808502576 0.14980532620896259 0.17442920569628892 0.20122374321667982 0.22671148124426982 0.2567247835216962 0.29398391012265584 0.3334046781753575 0.36994988062020684 0.4051845403123747 0.4427884036563996 0.48010540205055896 0.507420685505645 0.5154113698243705 0.501467963852499 0.46896728783225716 0.4235688967392092 0.3734999447466801 0.3318529287099213 0.3111518699203876 0.311168088824118 0.31860378811499196 0.32707031754448496 0.3516111522042701 0.4081998988886463 0.47561385046711385 0.49401343876069886 0.419111415762545 0.27569079650668704 0.1400014430365255 0.06275073024930275 0.023923158418622064 -0.02608640098449679 -0.09598027632452846 -0.1449618699941913 -0.1399393850999799 -0.09833830879361818 -0.06507292788983907 -0.061401888543234105 -0.07040428923757662 -0.0665350724262849 -0.044008506862835375 -0.014434420091603789
0.010553327935475858 0.026775732675806834 0.03469810931333228 0.03789524652980191 0.04335970402456376 0.05758599245951812 0.08051674700276193 0.10521740761763904 0.12438522736325676 0.13623761050827965 0.14392121715051462 0.15092313015593373 0.1582878011458562 0.16489874412710642 0.16838115859492536 0.16622391203437287 0.1581930346142199 0.14790187619748912 0.14027569989553723 0.13693833196790334 0.1352998541834045 0.13261058717295976 0.12985955392137094 0.1305970194988292 0.13547149224894045 0.13868721091907443 0.13228453504027898 0.11551967388013243 0.09803414205729842 0.09096949045380003 0.09585421539101376 0.10489868664494467 0.11133435690413122 0.11592234067502295 0.12293977479356394 0.1333020800623725 0.1435662663218094 0.1496983054774627 0.14992954965058414 0.14514552775811235 0.13847702132034043 0.1342685187300178 0.1354461326091169 0.14043498162194631 0.14336326427939938 0.13974041348027288 0.13266103692599182 0.1301175931410435 0.13367831323834536 0.13371361829543896 0.12108856669348544 0.10136437876186025 0.0910202697665075 0.09938821626011012 0.11974899854804659 0.13946141825208963 0.15363057827468332 0.1654947490901561 0.17706530489629405 0.18481598907564928 0.18483294845319279 0.1783418955271063 0.17038876768951627 0.1651946450864674 0.16439145118478612 0.16795123164623152 0.17440934671588557 0.18064073327162214 0.18386487282139302 0.18521327975294355 0.19009298914778272 0.20248224574329277 0.21832562938727618 0.22749570636065758 0.2247020016440893 0.21645202485246196 0.21432915228576224 0.22287103716413903 0.23707450671873753 0.25024642497210464 0.2599997473801639 0.26636697350924143 0.2682993790366534 0.26469416416719704 0.2574395153719427 0.25116714561797276 0.24951038896885477 0.2521682802119611 0.25572680710169254 0.2565388464777929 0.25219780295417155 0.24176274008605148 0.2277270776819333 0.21784773193682935 0.2198114040842551 0.23035049403579522 0.2339851449903946 0.2186730142289625 0.1907312674795811 0.16846673157716274
0.16225394320255376 0.16665083702029132 0.1714777027728306 0.1737673876084594 0.17635587314774442 0.1801089050631591 0.18269640362963302 0.18356762073036387 0.18566943627728585 0.19141039082262448 0.19994111084197708 0.21010011675020102 0.22354320012466225 0.2416944012436666 0.26116862374653854 0.27833889929488104 0.3007735911750594 0.3467595301406875 0.4238074666171963 0.5077303229033917 0.5520281916009167 0.5252329805018999 0.44002759410259057 0.34288204890375146 0.27173131405936735 0.22456879861135018 0.1747550200151722 0.11596291792412358 0.07935144432225191 0.097443241692026 0.15840775725291587 0.20791166188033722 0.19710098553343045 0.12403390914025202 0.029321845031952298 -0.04343760725656564 -0.08175917251047633 -0.10283075798968053 -0.12312159508541728 -0.13575201206395507 -0.12276056957538585 -0.08481138566811897 -0.04641319208354186 -0.027657379632939818 -0.020451693703264162 -0.0010504486565899051 0.03910665196402892 0.08433229030029304 0.11500376182844087 0.12798712245329824 0.1341783776455134 0.14219375402587645 0.15016551184505672 0.15206392191992613 0.14713910240277384 0.1408938450211774 0.13831066880848158 0.13868841559038053 0.1377691582045595 0.13301183410965262 0.12537937621508524 0.1182331469087613 0.11710568626521817 0.12747848407094511 0.14730056568175867 0.16336824048546017 0.16241405597083994 0.14729325224341017 0.13639936535451444 0.14437160878066108 0.16737080736832285 0.18987070435098696 0.2021160506683927 0.2067724679874254 0.21049398252049228 0.2146968604156145 0.21671655972319964 0.21632278921934323 0.21686779516769944 0.22051586605870577 0.2256141094194588 0.22924799414691166 0.23018944636998434 0.229666174854617 0.23187959851367348 0.24241615774336184 0.26129785435370717 0.27786051660842087 0.2786906893099999 0.2630352932386089 0.2458923835386542 0.24282544284200602 0.25446683121304686 0.26856644981320543 0.27478605913617893 0.2735373622476707 0.2707687397170675 0.26867494975876965 0.2645992049188176 0.25721523416634584
0.24982478443858547 0.24623744718347954 0.24554685236298357 0.2433122033482098 0.23775708804936857 0.23327792238699044 0.23687107058038698 0.25037110191497636 0.2660531720605055 0.2720691250319825 0.26467169361373527 0.25374875462525864 0.2533495723115414 0.267347001719971 0.28699988150726785 0.30178184073690967 0.3090414819712954 0.31245505806853424 0.31487216736027496 0.3159074615373608 0.3150565907158009 0.31366162778767853 0.31321269148530634 0.3136883353444518 0.3140604551132714 0.3129571789502513 0.30880784680577295 0.3014989370272098 0.29437498180351346 0.29155921712886734 0.29127755234577246 0.2849690340783019 0.26702944538691603 0.24398526980117755 0.2296393643254422 0.23074454676371253 0.2404284777431456 0.2461547856322297 0.24162981337590494 0.23024391341468062 0.2193208524980004 0.2129457104133545 0.20971470836685668 0.20604990185532657 0.20126903686960015 0.19894598877192984 0.2020914505059937 0.20765068203749112 0.21071501995236586 0.21853766940136465 0.254272024054777 0.33228881195289084 0.42638537535772636 0.4793768451714422 0.459035793895897 0.39559016045313 0.34767650358947816 0.3356078478465085 0.32496100372013315 0.27602951338875215 0.1922444606115904 0.11212299313179637 0.06520536326077635 0.04773664972767159 0.03758835003578395 0.02128815572644937 0.002652273064062842 -0.008937649766252444 -0.012050532080413276 -0.014251838366516834 -0.02256689113091571 -0.034837781431200476 -0.040921248578428465 -0.033235556263457096 -0.01667426073005964 -0.006186359280467623 -0.0120630178733094 -0.028390546706683457 -0.03863021378963752 -0.03240401965494501 -0.014329386523596159 0.0035947985179631027 0.01481383741448301 0.02134029683363067 0.02664744926271213 0.029807561132844634 0.027895286809653946 0.021476430319459085 0.014814437826880916 0.010743315314554438 0.007601534433566168 0.0025954896718224495 -0.0029502737686288197 -0.003823529487720885 0.003182650871666211 0.015174329377980536 0.025931148683400886 0.03185752633466232 0.03478071738168389 0.04039971280710949
0.054064575883737274 0.07491031893542234 0.09296256259208482 0.09632691599432054 0.08483218838716289 0.07367474856881262 0.0792060534339174 0.10208856767513895 0.12770223247537177 0.14197349745536564 0.14292751895572556 0.13714627039950542 0.13028872333849037 0.124343335694176 0.12089577686362414 0.12168363253549408 0.12522807702031508 0.12687239854138677 0.1246535241009925 0.12312554274356738 0.12875201839264894 0.14237655301552288 0.15842872062146973 0.17130419512110007 0.18134940101693967 0.19492593799179447 0.2181272540856623 0.24832191862211095 0.27287998519747375 0.28082069988177844 0.2768116608961247 0.27929795438216237 0.302290029260997 0.34185206995395434 0.382466309702008 0.4131487426184607 0.4337312104133808 0.44807468619079244 0.4571441244697522 0.46078512573550345 0.4636189523744681 0.47661974251148587 0.5119422401109321 0.5731836927825334 0.6451255012736818 0.6925693756250814 0.6790860088734104 0.5975518537295991 0.48153538561499626 0.3795418719052743 0.31684822872887447 0.2838888149637413 0.25489622978779874 0.2088348246075809 0.13765394198774641 0.05086723009781627 -0.021795189504178816 -0.043968611284466746 -0.0014129004297570745 0.08288986743472022 0.16774116409824955 0.22727611287624183 0.2627002413684426 0.28530717706858105 0.2980755694154626 0.2977250361610974 0.28736830758903403 0.27782488901547936 0.2757767333676983 0.276555146886034 0.27159753790321417 0.2597074903447989 0.24703407252974227 0.23702282983150208 0.22522602090411523 0.2067921161216974 0.18595415776398444 0.17239567376333048 0.16782244333988156 0.16254520125579344 0.14919183955586304 0.13426860593335202 0.12937689884588136 0.1340413747609543 0.1353800168802406 0.12493840929081111 0.10875223430888466 0.0989817196729233 0.10150966956968385 0.11455194012489191 0.13430654140241588 0.15688124817789495 0.17651253458654242 0.18731875210800536 0.189199516507873 0.18997718235680372 0.19900082015075873 0.21854651175176873 0.2428030630385952 0.26458431128300586
0.28088720665405104 0.2923169545709686 0.3001162744945708 0.3047370630198183 0.3053550554570819 0.30036899030879216 0.2901366408871555 0.278356195882902 0.26774158655545466 0.2556298126555753 0.23864712159449403 0.22160195509401348 0.21626851232423203 0.2292300271835186 0.25443601887412876 0.2797384997129872 0.29786684767324445 0.3086357838959597 0.3131294247298584 0.31049473554107737 0.3014660427826403 0.29141600389832945 0.28630151191083 0.28602757968285053 0.2847251674759574 0.2785503803088155 0.2719530949827544 0.27613896145685923 0.30142777187360925 0.3471302415984209 0.3944002746945041 0.4125048715321059 0.3809080753619854 0.3082222301760866 0.22608612488739185 0.1625973933394709 0.12206537164633903 0.08876860349822357 0.04731051563383669 -0.0011655401734484122 -0.04049111145829403 -0.054817824307418946 -0.04233390332945703 -0.015542366667265254 0.010113767398811174 0.02784235445043983 0.042187763544623474 0.06286565024561581 0.09581952493348456 0.13752681454924875 0.1760293816292486 0.19855246062426687 0.20032869638657547 0.18669818164857702 0.16682819525435488 0.14729829793291815 0.1325811670926227 0.12694134676282381 0.129574657849131 0.12935828329130597 0.11193349478950708 0.07441207020054544 0.02896395932526896 -0.008917020219773635 -0.03114528702031419 -0.036062862736955775 -0.024350763151429516 -0.0009695510228294377 0.023129903735727455 0.038007449025667925 0.04389819858557499 0.04961309196771927 0.06123918064846425 0.07583990265363687 0.08778652509546754 0.09767988405128257 0.1108085161737342 0.12776544452767993 0.1412957067159132 0.14450691743015692 0.13995712721677175 0.13805571392986854 0.14591287832828573 0.15839269190476385 0.16167824265069106 0.1471899640868707 0.12140935327713151 0.10025355977641165 0.09440592026069125 0.10231305376555506 0.11635689236742684 0.13130128820471976 0.14503076101479806 0.15507848556726414 0.15882982008171662 0.1566174921113252 0.15160790813465527 0.14639538516829154 0.14184902046045414 0.13921265496985016
0.1401878770265843 0.14316836174408148 0.14177240628479304 0.13094142655635643 0.11544213968016062 0.10903745607776846 0.12081222591123655 0.14227106870511805 0.15323055776327518 0.1438562122777937 0.12727065604826351 0.12610887969929466 0.14892987169038188 0.18400706528707522 0.2141400999772562 0.232046926823351 0.2413452063206082 0.24853568947597607 0.25783481820302606 0.27109313356957815 0.2881128661070208 0.30622452672165523 0.32186681581520304 0.333814038409903 0.3439216210691594 0.35395787044319366 0.3629013430977779 0.36952662095121985 0.37763301351849193 0.3950996003098144 0.42507005794925967 0.4609423270959576 0.4936552495908413 0.5206299810121194 0.5416813428316273 0.5481486201318518 0.5243885187497734 0.46314512286915765 0.37502930575488086 0.2807315320302141 0.19859565591042774 0.1418584311314826 0.12009273566300198 0.13475693284093726 0.17554812919316926 0.2269159078479996 0.27460974263574517 0.3005860877464494 0.28108151085053146 0.20710042679406737 0.1085015815847753 0.04112161630236834 0.03702440979609785 0.07165391218752322 0.08992246631116824 0.06401620789065601 0.017478874924595624 -0.007525734801162104 0.003945656100163645 0.03215383187327905 0.05251441595858036 0.06083031980285374 0.06795018004449938 0.07951303943679677 0.08920995388144723 0.08981510647601469 0.08335340355769644 0.07794167060750015 0.07875437699516996 0.08515867622325043 0.09408722956185951 0.10257135348333517 0.10805220388017947 0.1097806323043136 0.11016652147506881 0.11235408510562585 0.1165598833381608 0.1206140460943014 0.12248363316366055 0.11915263662561573 0.10531576628104682 0.07885248435234064 0.047723122384610496 0.026057410538480076 0.021248103160417003 0.02798287282292424 0.03631106108279307 0.04214273868818167 0.04735495853225208 0.05257549596706782 0.05467991696368259 0.052165111504745745 0.049528126998597696 0.05332806681752215 0.06461429408410127 0.07794739644450291 0.08839606200932575 0.0967709539461368 0.10625230360237425 0.11679431493012234
0.12682506324594026 0.13878405144142983 0.15683736210760033 0.1776789275059096 0.18995604456248064 0.18766568954879678 0.180058967855426 0.18220794244640193 0.19751287973943926 0.21548190488357527 0.22651148585853614 0.23258240699629112 0.24093279124869588 0.25204319133666914 0.2587559792339706 0.2560227355026126 0.2472738526666202 0.24011579897812943 0.2382786775154724 0.23940239619050654 0.2392575945988949 0.23608727592031079 0.23082130916297589 0.22477267646116877 0.21893923926065229 0.21567818872794278 0.21821683390968818 0.22530499572769105 0.2279860198162697 0.21724190522126793 0.19661957121206836 0.18261732785833232 0.18860039482441782 0.2106392799970456 0.23313002876684655 0.24675686941369582 0.2558776315143584 0.26810713119076823 0.2827435049382288 0.29349994039704563 0.29920899725445516 0.30618313750644005 0.31961137301432796 0.3366054892807666 0.34962347873427324 0.3543612455846194 0.3520910796482083 0.34660595721133736 0.34370672653525264 0.3538958746719511 0.38763802647528817 0.43933930324575643 0.4785271870888837 0.46936611469505324 0.4052104765731464 0.3165906369904047 0.23920060942498086 0.18206953223710484 0.13525849266945253 0.0988701370330359 0.08773157979220247 0.10804605475308644 0.14427785119859235 0.1739839373360898 0.18534405819787234 0.17490011175283005 0.13951418580226607 0.08394933402053922 0.03295902359654814 0.020001818093909045 0.05685401809313431 0.12283343265887346 0.1903222395144033 0.25160503818482577 0.30973340258654514 0.3501372902294595 0.33971258063934484 0.26147829182100957 0.1423992179238586 0.038909693617366355 -0.005601883492040283 0.010603963207180109 0.05530148552888686 0.09242689442778593 0.1054353814594261 0.09844265455152178 0.08315907289956495 0.06844018157152626 0.05893815776077684 0.05702052673306439 0.06234067761962872 0.07097593215757786 0.07795889707564431 0.08171667233697104 0.08539338687218209 0.09341657913396136 0.10716550371471745 0.12419999890782743 0.14090990738058135 0.15461978158303435
0.16294367345928643 0.16326524221107425 0.1559384967045642 0.1478781684261622 0.14833459231937 0.15778810222830147 0.16446648840995812 0.15692362944888807 0.1384926959819188 0.12430684529039022 0.12471575524546387 0.13648401544059735 0.1502035499547798 0.16083498213646238 0.1687265666034666 0.1746100463163531 0.1780244884897596 0.17977920371984074 0.18253363760468855 0.1880435754426517 0.1954280876289544 0.20276556915784943 0.2091627779970627 0.21453615775267473 0.2182069192475413 0.21851087332204885 0.21402520052468169 0.20613357032209728 0.20069620046949074 0.20402583541486985 0.21384613820163778 0.21710231129394345 0.2028941113715157 0.17747142228528787 0.16038232930445248 0.16382620728786387 0.18033199784531495 0.19321194837114433 0.19501575285887374 0.19185509879179075 0.19261547864132453 0.19956767523818103 0.2097210431463938 0.22062315217612152 0.23246070476145497 0.24675896138850348 0.2651660856003539 0.2883880244896422 0.31442445194234275 0.33823280053341054 0.35528532407927066 0.36693266485443143 0.38102292184441017 0.40380129812773813 0.4301868925657096 0.44650518426358327 0.4471314722868711 0.44570184522484513 0.4640870610481487 0.5099693580833381 0.5691927322003574 0.6203921433913694 0.6526856155351289 0.6670413544937457 0.6648093525295607 0.6410550443582032 0.5902534048120163 0.5148339526838851 0.4251847000327948 0.33191807382229666 0.24006274418911694 0.15079700963998105 0.06642821680337674 -0.008324139805567276 -0.06864676388844601 -0.11117342567706646 -0.13557683152552993 -0.14858207134556195 -0.16367479920002695 -0.18923069524938682 -0.2155334162800564 -0.2200746011640458 -0.18991634943885988 -0.13606348581183167 -0.08297582784999842 -0.046216495691407324 -0.023059473188459325 -0.002168914173682847 0.023216501946318836 0.052635633033704284 0.08357583316635453 0.1144464584917777 0.14318391622525997 0.16679295987360537 0.18417569565757935 0.19824740985773293 0.21363848959164272 0.23251467365358855 0.2538942719900831 0.2763723462885459
0.298568802483645 0.31617226062920734 0.322614637301865 0.31658711377068266 0.30714458575975945 0.306775438491736 0.3184778118086311 0.3325299597091397 0.3373716716897841 0.3315635471297291 0.3231411122548977 0.3188028256407727 0.31701277850874277 0.31251660715905283 0.30494070172631516 0.29985653390979417 0.3011119024514282 0.3046474328008405 0.30211275028310564 0.28982264574232636 0.27212951408630714 0.2569179483159247 0.25042966298330327 0.25465582929200264 0.26457465797424484 0.26833743408108696 0.2564549128397382 0.23269668674389488 0.21144384956676307 0.20275332445848476 0.20379552578969562 0.2056993727909959 0.20389916162925378 0.199214497444102 0.19288421657718405 0.18509315419642147 0.17736903245350064 0.17264950735667234 0.17206382069739948 0.17356646987696242 0.1746849239180486 0.17548633335965386 0.1777960898079831 0.18192904826351777 0.18547543357781576 0.18627712929563206 0.1860390183568891 0.18864834511274228 0.19357176757171612 0.19356314200802074 0.18264090157937457 0.16540253137599026 0.1541976637616549 0.15646746471269574 0.16839852045939224 0.18180957428264005 0.19314759763390787 0.20324507871754388 0.21162420395299728 0.215513516851598 0.21437594032432933 0.21210370393639 0.2128946305420804 0.21593937285873813 0.2159760569710014 0.20956250737151352 0.19960549123957586 0.19249227973361127 0.19133631456410574 0.1938345965409624 0.19720241316567866 0.2028881521909746 0.21340452083415457 0.22491797895565568 0.22752527560583627 0.21620582166071725 0.19928974800307908 0.19206013253324106 0.2019411879901205 0.22243697945434798 0.24126924632560362 0.2515914369089328 0.25480634063747915 0.2555062407527846 0.2561412848669525 0.25596326838819206 0.25334089910756935 0.24841478126584665 0.24360084197874146 0.24142394403055278 0.24195364871065186 0.242968697960216 0.24262681883059342 0.24073244416479297 0.237130530551787 0.23140052592728302 0.22593905943531448 0.22607412778352073 0.23286722896258924 0.2380761867240744
0.2321239851940364 0.2168962533497133 0.2050747075260175 0.20555966705842646 0.21421231303396457 0.2209529443734001 0.2217414737213093 0.22006948626889197 0.2195278174736033 0.21981699197848892 0.21994936235619503 0.22105980956768492 0.224213103291665 0.2279250190782175 0.22974919220149861 0.228853850926287 0.2256955893656711 0.22071599431797287 0.2149264678122205 0.21034835161303578 0.20810397377989415 0.20742607651795625 0.2081862239801406 0.2118407934994014 0.2166144061140967 0.2146013498437673 0.1996552249578043 0.1780044856822673 0.16498690660139692 0.16892111582826302 0.18235381615211654 0.1918935630977006 0.19303907709208504 0.19146444411705763 0.19234341504050675 0.19412181680495594 0.19343985881512243 0.19120501037635484 0.19055143106667352 0.19116015785008203 0.18897760062991095 0.18119292472486417 0.1694775310932571 0.158418401282264 0.1519211472587071 0.1506333086380639 0.1515636824080635 0.15053340359500125 0.14663250005949027 0.14448580706372535 0.1497833820278643 0.16079502612823526 0.1666937659378476 0.15828821127520554 0.14018164424634502 0.12837944141146337 0.13450770552402974 0.15500116096137684 0.17705162896935225 0.192291182715495 0.2019998233694129 0.2108213274844351 0.21969179424963892 0.22656997249348343 0.23170690934528432 0.23879300714213614 0.24996664289621734 0.26166526045965727 0.2676595707391314 0.2661445027707204 0.26204517897719065 0.26143478578283896 0.26465862971533916 0.2660720855271238 0.26063990270269227 0.2508236624603785 0.24649167616364379 0.2552863648408914 0.2710700350557928 0.27557002669766223 0.2569249937495867 0.22550376506442052 0.20578634416381475 0.2116597618895989 0.23363921932992432 0.2513181378942224 0.2543018568653139 0.2482028614211313 0.24307649062672673 0.24130510503112343 0.23836829025168588 0.2316682192138006 0.22406376025944008 0.21887794514004455 0.2154702949786068 0.2117471705111162 0.20846869659343453 0.20812989298994233 0.21039156291730476 0.21133461293028513
0.20773537886956572 0.20018002204877366 0.19125362246049127 0.18292141005555682 0.17720072112217525 0.17621516629073639 0.17778256706579942 0.1734673866898105 0.15670128598535865 0.13284160994018043 0.11626211991884013 0.11583715623300052 0.12614035939680013 0.13434708060015083 0.13369382429529753 0.12830252666704178 0.12580392867342724 0.12776179575983806 0.12870684536979518 0.12340788743286414 0.11282642541364954 0.10261202172211298 0.09767137347044873 0.09900888434941535 0.1041168816737075 0.10911545367096157 0.11160265248715934 0.11264087946713042 0.11526155009162863 0.12020760242164712 0.12443929241984618 0.12554784981515393 0.1262896991700272 0.13131110949406297 0.13921397878912142 0.14201653099434944 0.13476577270004583 0.12264779986110479 0.11546526922018172 0.11686205528188509 0.12220684541918246 0.12615185506400067 0.1286009804461168 0.13241531060440792 0.13818171761296588 0.14348921559227557 0.1461905638383313 0.1462872434966283 0.1449838643598377 0.14393275001107528 0.14557686195575475 0.15191715273216364 0.16149959033559244 0.16906446965126107 0.17009804211700236 0.16530294076811367 0.1590681471970618 0.1543986971053692 0.15216017539465834 0.15475665407236155 0.16497902523633146 0.17832594714036226 0.18215370712461915 0.1689237525264597 0.14776577580193645 0.13659811193671073 0.14348649847690198 0.1607793598801434 0.17681796233078756 0.1876597587103715 0.19606410177677447 0.20404204560046552 0.2101621120642499 0.21243676508954498 0.21076551829314055 0.2065025697228792 0.20140699897699021 0.19733597372997452 0.19555202163985533 0.19544841262485851 0.194753025936114 0.1920252528306738 0.1884805568870563 0.18612271703123287 0.184601661948906 0.18239415043736126 0.18162282918643013 0.18772739908542962 0.20080079541161336 0.2105364030569121 0.20600551577371337 0.1899903325697602 0.17748597747695705 0.17870232910505593 0.18896648622143516 0.19771649592851975 0.20212962109638172 0.2070657349271366 0.2144484313729212 0.2188611135099362
0.21495030156226225 0.20527649946603163 0.1977075039508669 0.19612021601490334 0.196526347434722 0.1930529408359501 0.1855594793555907 0.17921426601622129 0.17733673541668515 0.17737958083753266 0.17486206922439354 0.16937688523424838 0.1654028412937359 0.1680183662863333 0.1778509827306611 0.1886466863693471 0.19038364547844028 0.1781845366343354 0.15935406588276144 0.1487040024128618 0.154558709748083 0.170626121692186 0.18338504056481916 0.18614495164074718 0.18340537383054187 0.18229279159030423 0.18376579446339678 0.1842084440915004 0.18287796641255705 0.18404560810266324 0.19141353666219263 0.20251837446475146 0.21019102368753478 0.20966441151517004 0.20359960322580248 0.19950331724015452 0.20235739842944436 0.21012995418159555 0.21591752194769384 0.21428478014711475 0.20722244201386142 0.20433734023866784 0.21364220536213654 0.22999514921318437 0.23698229048657898 0.2247236997918819 0.20269600342832358 0.18966731193867922 0.19286356898003756 0.2027640532813299 0.20782665684856827 0.20755944636389353 0.20807608208308903 0.2100740796945755 0.2076114665262975 0.19797271012419979 0.1869783926074134 0.18226277801992916 0.1843582389440088 0.18687142641576177 0.18406287397753718 0.1762225699420086 0.1679895984973459 0.16303196276773005 0.1608094580509353 0.15790576316629845 0.15262402722539029 0.1484337293766722 0.15086728171432923 0.15909169503900317 0.16325408149945883 0.15469703984826727 0.13804486650400039 0.12834751415029874 0.13518544196994223 0.15328300406207634 0.17029692517307496 0.18011754878907496 0.18531176413942385 0.189297478557114 0.19142008509094793 0.1902278426649525 0.18732619933948727 0.18557109818255352 0.1853700903118473 0.18490998872494754 0.1834478019191258 0.1827560931225191 0.1848284571136978 0.18876227507517937 0.19084751969967612 0.18850418906189273 0.18413286755848077 0.18392770122650182 0.19129271644723117 0.20123892909202146 0.20344231895680415 0.19300508046405723 0.1772285930162394 0.16910341114330504
0.17415468608795318 0.186239316252936 0.19639616807755353 0.2020992361506049 0.2054504000030563 0.20565258615373608 0.19878214461196098 0.1854337631316514 0.1736399835426616 0.17094706354073583 0.175698240033028 0.17920068812747184 0.17589562554743893 0.16894697579316648 0.1656822320678259 0.16983710107914377 0.17953806287453655 0.19107334093602354 0.2018448537759174 0.20949862190068405 0.21135610087890422 0.20777104611427907 0.2050315871449738 0.21049860891791128 0.22275479586422042 0.23007825699360995 0.22277344988404854 0.20560463854732525 0.19384328451404617 0.1969231182334099 0.2096101613974001 0.22013869240899067 0.22331548391080058 0.22289725501455918 0.22361389912403692 0.225278501984854 0.22527226507782722 0.22338718716042738 0.22168021527765647 0.2205710225331389 0.21750752947864196 0.210293688371799 0.2005769499698904 0.19265189160855234 0.18868733791999026 0.18618415368816968 0.18096976988805363 0.17212510552450072 0.16267813744382795 0.1557300525687873 0.15216813106418095 0.1526728117935091 0.1581330179743783 0.16507958985428597 0.16436874931703738 0.14994846663153297 0.12804612626010703 0.11276649286479533 0.11194644880016806 0.12063791891553335 0.12877821293871686 0.13148971657753425 0.1302051702596326 0.1271824441655243 0.12288440161521974 0.1181236569308566 0.1151056503570568 0.11470191274416122 0.11449431247841399 0.1115623097145545 0.10675140638411976 0.10432931438427566 0.10698008270027543 0.1127031284231729 0.11788156699245887 0.12231618451330109 0.12925543801428196 0.1404734577184589 0.1532003327084483 0.1628931785937564 0.16794847603482443 0.17020306496793106 0.17130166340921715 0.17133776135979945 0.17227083816131675 0.17864653677289197 0.19026705720023168 0.19699579442214424 0.18813266972481116 0.16747863720710116 0.1526466774052534 0.15704480212222865 0.17680834667788736 0.1972518055640886 0.20794915066254543 0.209054960781616 0.20665801475376527 0.2060582698653623 0.20864732363792204 0.21227070662380454
0.21382988629339977 0.21235971593050734 0.20966311073670124 0.2077345011390081 0.20638874978966587 0.20431977988269917 0.20179819533960028 0.20088079494306563 0.2030037718310046 0.20770418677006014 0.21391481537433782 0.22113291132437748 0.22856511912640093 0.23398450636729104 0.23455720655798076 0.2293960580043292 0.22141908245353772 0.21562175121699426 0.21375551923391853 0.21136406530288496 0.2036671507080334 0.19513083186042568 0.19751528998338136 0.21381257511705615 0.2289987206576285 0.22466505642258977 0.20154765152028517 0.17997312598633175 0.17724815873906483 0.19127172124899475 0.20818998505100514 0.21915371401393582 0.22453912335340637 0.22647312048660315 0.22488086096282528 0.22123640808902525 0.220273522046598 0.22469206552949347 0.23080689012829758 0.2325970158499414 0.22905453575204981 0.22472872873855348 0.22304756383149194 0.22186319982626762 0.21698660093640756 0.20821209931195797 0.19945310080280465 0.19345453304480553 0.1887613017887658 0.18231662035152282 0.17327049749852766 0.16383332520750787 0.1575526983966367 0.1558042026043473 0.15396578030805722 0.143152306415293 0.12003173820157849 0.09416907159139505 0.0809878665035625 0.08671247150249295 0.10345593260337578 0.11928655505902515 0.12947420008194374 0.13678182647383 0.1444329432936593 0.15230858759121801 0.15939101838725941 0.1668696449407003 0.17697364889440115 0.189226079656611 0.19939263032878674 0.20305753281413402 0.20006811559011276 0.19497215471158277 0.19292420110694444 0.1951295912739029 0.19829961110338956 0.19866934983586346 0.19610722315540752 0.19327828366033564 0.1913259417996268 0.18922711607826992 0.18822583355362846 0.19250496153428492 0.2017101662374896 0.20663183391121867 0.19852142402619996 0.18147313885333238 0.16961549668506465 0.17162911517930277 0.18271392661522926 0.19226605307776298 0.19465907714877456 0.1907294141131357 0.1827912517210653 0.17200429756912408 0.15997355560664442 0.15041151591632043 0.14783548081133696 0.1540386661804894
0.16562370532333248 0.17591900722093776 0.1806758073798304 0.18184200732358788 0.18469019145414756 0.19138620717790006 0.19868831434847753 0.2020481266164956 0.2007376398153141 0.199038915011178 0.20339184748211683 0.21676418358325758 0.23324459244100673 0.2403267510931602 0.2312932560618881 0.21457340238418982 0.20570414728242556 0.20986135904800515 0.21759495709805252 0.21891448832764898 0.21566080595710863 0.21588587452917146 0.2201371365572025 0.21994511032399616 0.2101412816234802 0.19706403011367743 0.19133576446283723 0.19546750827490983 0.20254715810188625 0.2062453765145917 0.20781359385494289 0.21155885987792725 0.21644294340837417 0.21551881711413412 0.2036173467933865 0.18414815713105206 0.167983616585003 0.16464718720325777 0.17264955144284538 0.17936355802103454 0.1735967235929161 0.1581097925494284 0.14642953924877627 0.14742148318224768 0.15685820066043504 0.1647982477713996 0.1668997320420027 0.16563775370210426 0.16310261326023956 0.15714040954041011 0.14580554718553343 0.13279313097072587 0.12502110598007585 0.12466686329523892 0.1264126751962198 0.12373549603469361 0.11558917323018168 0.10544035296238485 0.09604073186268786 0.08731004179989808 0.0782826055876272 0.07002608700626133 0.06719439230901866 0.07515693107263129 0.09232951923328203 0.10680225100901107 0.1063115205330615 0.09277828664802998 0.08201682695411922 0.08671291772066722 0.10367543233437672 0.12067722405009863 0.13184992049982344 0.14132383479736102 0.15354231452780343 0.1660971671894291 0.17380921707062616 0.17589969028735067 0.17632010076773452 0.17871174612147536 0.18327744746180816 0.18785213316121294 0.19002930263087348 0.18814389709282892 0.18210223938430556 0.17454084612153975 0.17004511113955179 0.17146725853447417 0.17735439922516735 0.18408482558360303 0.1891046042561546 0.19033598555591805 0.1851296186221687 0.17387431171830542 0.16304561251136945 0.16002102936454893 0.1652589350312081 0.1734254689168956 0.18149233408765514 0.19119433524258728
0.2030590146099019 0.21244986196872817 0.21405809755471372 0.20838759836866827 0.20162621875136671 0.19960901825056251 0.20317921145337683 0.20915765496098404 0.21440650395294522 0.21820919489241616 0.22134330205312935 0.22401914482557983 0.22532022691591097 0.2242447171722075 0.22033301088728893 0.21309817198498013 0.20250195521391634 0.19182723610861113 0.1884355957707544 0.19703354355658348 0.2110154983868296 0.21552417735767745 0.20312666586708114 0.18359643191023803 0.17395757482149615 0.1803061833097417 0.19343322308712108 0.20195808892179556 0.20534023295119536 0.21155480579377636 0.2246071335003586 0.23861326558396853 0.24464541069703277 0.23967667229093986 0.22702767120906173 0.21217674385695368 0.201684650584127 0.2016830724838008 0.21107033446339182 0.2185212255226458 0.21267137635821728 0.19515033449277538 0.1795454322822043 0.1778452885111331 0.1899788399020437 0.20467416881664005 0.20825067131813485 0.1949555248891927 0.1719369592078475 0.15349586965171239 0.14858073793314933 0.15407026300536766 0.16069811816337873 0.16389069069562193 0.16666761827507542 0.17230793005253237 0.1774414667481761 0.1752581112024875 0.16449689065271428 0.15156873518092293 0.14274920060950333 0.13741484497088194 0.13126038700241396 0.12386656813183693 0.1196942150089327 0.1219083187123355 0.12778090852788127 0.13080417465707034 0.12651671698062317 0.11718114246308768 0.11172820644564276 0.11822234356393078 0.13298580708768393 0.1399330806505352 0.12642872482028603 0.09951226720483657 0.0811284020746049 0.08621076977484214 0.1096228288649846 0.13565951869794918 0.1550231782301694 0.16846812989875107 0.17784392196786886 0.18100524229961948 0.1770284900069494 0.17124041596257808 0.17097253245358446 0.1777283105490374 0.18648049038478826 0.1922734317991063 0.1947547971575371 0.19563288256832662 0.1947006953758378 0.19110489062308245 0.18688908740963936 0.18555322123515 0.18744873536834317 0.1902779094118776 0.19347889063528192 0.1971246404459543
0.19697455631523883 0.1876921011768716 0.17294559721559713 0.165658793812012 0.17430484406316227 0.1934549288955163 0.21143099387855396 0.22315293000417474 0.23117780141498612 0.23749189978509386 0.24026119826904377 0.2386121393851622 0.23572714370420988 0.2348166482183477 0.23438712631912834 0.2302596801038374 0.22156384940769042 0.21213230885210896 0.20571761273132816 0.2023458620982148 0.20043777114821218 0.1997812557429599 0.19965489603818187 0.19620050560840382 0.18703284245569443 0.1791299395427828 0.18527468667608282 0.20735998141214057 0.22821035276807244 0.22818981037160768 0.2086957183408652 0.19142438047232394 0.19334323157314579 0.20923768836156625 0.22189805825091183 0.22357502884336852 0.22130109538428855 0.2232649078325174 0.2271861412252415 0.225145538070654 0.2156381670296614 0.20557895612588406 0.20089627730249002 0.19977164505874945 0.19669667753052433 0.1897555146555536 0.1813212478484969 0.17365595834613098 0.16679767667692172 0.16026853184882653 0.15471994562983057 0.151916717328011 0.15396997294498999 0.16100860668065706 0.16787973547392002 0.16564020088309403 0.15034363124908118 0.12991357940445966 0.11863813545715901 0.12383650776074136 0.13973534063136575 0.15436550554133793 0.16003901853984537 0.15677497156106446 0.1487485693703662 0.140053037335971 0.13285266942431925 0.1272221564570372 0.1222468327206449 0.11788706733847239 0.11541274785237746 0.11549968338255318 0.11692537068498463 0.11841659275287396 0.12087712639933741 0.12566885408111067 0.13113564847455061 0.13439014463966312 0.1376849999874586 0.14788341260014848 0.1649355953092839 0.17538932069890548 0.16556439017700048 0.14045911527792113 0.1217086278109402 0.1248762621992882 0.14455291016385885 0.16414830303185288 0.17480111608737475 0.17996079007425794 0.18462894649059194 0.1870775271838715 0.18358183502872233 0.1772427969125372 0.1768406572932506 0.18617829690336468 0.1982237358899192 0.20263215746312185 0.19753145815630413 0.19088575306716
0.19055565958770784 0.1959305392582328 0.2000003242974824 0.19737674770303937 0.18959331647704647 0.18430141806043604 0.18876702530349138 0.20127892134570063 0.20976865107424567 0.20331928760406875 0.18561795787546695 0.17289687110764554 0.1771177474726398 0.19439672473059474 0.21150425738122186 0.2205554720603252 0.22438290759618895 0.2290337702144383 0.23466093279858505 0.2354615357423595 0.22770248032137946 0.21604656745283402 0.21050016757155984 0.21666512495960755 0.22962709873682405 0.2381250930628635 0.2349667196079045 0.2237845931025283 0.21574188233104327 0.2183458510416067 0.22657645500930465 0.2273543154457353 0.21567363875802784 0.20369750882225027 0.20762687603273472 0.2255308863605902 0.23589992376715108 0.22218823627140105 0.19322072185584913 0.17360833792586453 0.176648567947888 0.1921558959626016 0.2005960619251755 0.19420502765059747 0.18162901836581274 0.17442182529481687 0.17369349507154153 0.17188538459350075 0.16463055598692192 0.15654018767465125 0.15493535000053707 0.16107919738587928 0.16938872344465974 0.17390912353437238 0.17386117565315995 0.17262729672843655 0.17185935167723582 0.16803712683108799 0.15741717593809684 0.14459689801603887 0.1410097523241861 0.15032559165928683 0.15952907013621342 0.15234520244145677 0.1306084402413492 0.11423638193084104 0.11821129714236725 0.1363730168697032 0.15141530359566127 0.1551597139073878 0.15306315992182715 0.15174766631047962 0.15000507606103486 0.14441675354470404 0.13817625147971285 0.1386487310623759 0.14716808701816064 0.15598619943653946 0.15699497089829095 0.15101797170002884 0.14640031288267408 0.14932388794699253 0.15724486811338928 0.16177152236117587 0.15708537476684248 0.1462494059007105 0.1400512527409388 0.14728590311698228 0.16355085045521567 0.17225239520682786 0.16124520424951042 0.13733800849806146 0.11986948493678197 0.12038559279645107 0.1329449831155596 0.1444939779567172 0.14969808275056917 0.15278893705963514 0.15830921513417706 0.16498807887898548
0.1690139280737605 0.1696858025403352 0.16976518531499274 0.17193398043187574 0.17685708854875573 0.18378157958573196 0.190884843911027 0.19516133434055277 0.19434948799834736 0.19012844432290885 0.18751384959766287 0.1891262909099116 0.1917253113849789 0.1913383794489356 0.19004924853437918 0.1926564106128279 0.19692336238356828 0.1938101879279018 0.1802278307256936 0.1660885844174702 0.1638604837422621 0.17407690535393358 0.1859543057784677 0.1908209087838225 0.19003083020968578 0.1895037374621847 0.19130266904774332 0.19313204246852556 0.1932454261508832 0.19245022451512878 0.19198980550285571 0.19207543375558717 0.1926845183899269 0.19401974460201554 0.1958337952499969 0.1975008760967402 0.19867841600041106 0.1983071432366275 0.1932583000958966 0.18143937767087331 0.16790873710432963 0.16325874668121854 0.17059522694231602 0.1771922795044041 0.16675713173676002 0.140137372225502 0.11686272300969786 0.11415964810344753 0.12991395482647042 0.14878859685120496 0.15982605138778913 0.16323144549714633 0.16270848573247826 0.15765250892711632 0.14534926218027433 0.1280102950166225 0.11387629411450653 0.11014189481123611 0.11589845462546458 0.12334288853923166 0.1257426574217165 0.12321399601048602 0.12083091146833395 0.12219075627595402 0.12513069806112107 0.12376973031735063 0.11587151876372287 0.10798331669380468 0.10963812391157281 0.12027781695446392 0.12619617349972576 0.1156228844708293 0.09468896127379753 0.0826082173282909 0.0910016595337173 0.11273539326936717 0.1318849920796322 0.14020581987327507 0.1414818131450892 0.14282714251674172 0.1457841178504331 0.146671725674904 0.14353534703909598 0.14022359185191002 0.14245676514374972 0.15071288077475017 0.15898871998764594 0.16160043194563362 0.1598811239923604 0.16014366843899847 0.1654448166644381 0.17214999501708822 0.17594864211468797 0.17877280921753141 0.18609073547253438 0.19708390627351313 0.20155969661169337 0.19036554552240506 0.1676999756348299 0.1490487927254446
0.14601104870840811 0.15612821988921305 0.1687255124842045 0.17700364017905704 0.18110933942725077 0.18193495236518348 0.1772361218473706 0.16505824117718912 0.1477606168439579 0.13053657424081483 0.11717563118825244 0.10835851796608321 0.10266996815324977 0.0977771026036049 0.09159710916053546 0.08405389160981655 0.07730199924188805 0.07262375410622372 0.06800718008432616 0.06241343363843578 0.0628201808657164 0.08054559387225871 0.11517107052920583 0.14725634199201476 0.15635099437907768 0.14583513177418012 0.14144835285803756 0.16280174475308828 0.20271206634489433 0.23827385862596773 0.25712721279313616 0.2667796030466032 0.2800379408640768 0.298776000430069 0.31551861895521044 0.32635571276462605 0.33570431102336895 0.34796755271428914 0.35983376488445495 0.364177838112806 0.3592763648936634 0.3506724460798491 0.34402446878253684 0.33862309805675517 0.3295926371761092 0.3164101406220821 0.30714700192536804 0.3101930617973152 0.32026175469073326 0.31792805224941245 0.28928784233039173 0.24424154693941985 0.2090191590497643 0.2003951292413117 0.2121833423980275 0.22689083775230978 0.23382630020659248 0.23252617520057675 0.2244396252583834 0.20918922420111147 0.18939514457174167 0.17307546473092378 0.16707820345094232 0.169681320687165 0.1727399823946523 0.17087496314978415 0.16618897990822248 0.16389921631675175 0.16584263683335013 0.1690680724265544 0.16846103540765156 0.15968604362260594 0.1426772844738993 0.1245547665322443 0.11525978116509004 0.11562997918210233 0.11279306971311892 0.09379487060483646 0.06289875279916557 0.03928938341703908 0.037320821085215755 0.05414968234375668 0.07701129955155671 0.09650399038624104 0.1101090381951577 0.11791182870733356 0.12049064947561627 0.12021303766531746 0.12042643165298578 0.1221210817300353 0.12323989992763353 0.12185551560516117 0.1184215323863623 0.11456211495711402 0.11158695870091498 0.11097047562219382 0.11423099946147033 0.12069296089656201 0.1270433783790321 0.13164035797274146
0.1381983811593378 0.15148383042898445 0.1688705671365291 0.18019118641178522 0.17831075893707807 0.16714678675009445 0.1566766741140624 0.15228901801045483 0.15234548159663847 0.1546658294331304 0.16056530641420802 0.1709559894214229 0.18193957817491432 0.18768968334946506 0.18708194455384933 0.184770358487707 0.18510374819957437 0.18724475464257012 0.18799962491044309 0.18762585949027455 0.1896504502462057 0.19518123607379373 0.2007923331603005 0.2029701023794758 0.2013966632011547 0.19646682686714093 0.18797952244133823 0.17960745257287983 0.1793543199560416 0.188444811035108 0.19297192303229163 0.17628286278730018 0.14106848052485685 0.11111734551918767 0.10702367616285981 0.12510241512429662 0.14462481597960092 0.15190533951515625 0.15091972852263255 0.15131685873677642 0.15387149538545022 0.15226237916821037 0.14490079878813317 0.13828219983125337 0.13814629684953988 0.14226515176956409 0.14456446989115038 0.14342543642565056 0.14254070193900012 0.14458649619953745 0.1472308172312069 0.14647040308727935 0.1428413365926219 0.14263029627552293 0.1509042596488157 0.16305480305087816 0.1667518672928811 0.15545138731805463 0.13762333770977989 0.1284944544122327 0.13381948345460862 0.14587403763455078 0.15470817326239072 0.15833340509127095 0.16045073595043904 0.1626511520999537 0.1627525098393556 0.1593705839036907 0.15465367730627086 0.15201741102169794 0.1530310140012162 0.15697242533604286 0.16195030686498915 0.165725947295745 0.16671828252753138 0.16560220986316565 0.16517551464959207 0.16667585056309794 0.16668736014992455 0.16128708132932246 0.1542965712995713 0.15590979876723357 0.1683156253996101 0.17764559837655158 0.16867390715849911 0.14584033251287865 0.13045561749995255 0.13564672775863743 0.15224295696313617 0.16276503748509893 0.16225660855943277 0.15969509100153864 0.16339468506915109 0.17194708651641377 0.17894412493488607 0.18129115466686835 0.1810811181538219 0.18178849905243463 0.18455773742727152 0.1878859642506194
0.19005052241342088 0.19116697296113574 0.1922898043073939 0.19274516337756695 0.1895958201923758 0.18083709052843663 0.16939104571463495 0.16301646850593232 0.1677213002220693 0.17947859957099108 0.18503247188789987 0.1751222313574362 0.15617156524755263 0.14461864657644433 0.14968859082875347 0.16585089488918595 0.18216931092524768 0.19364023048262874 0.2012146048879488 0.20567565613618222 0.2062787315289939 0.2037249772956544 0.20038835927791496 0.19749603103135313 0.19464010042286126 0.19209312980551893 0.19101028404762657 0.19077734101576477 0.1888098117149487 0.1842674874862587 0.17951445670974617 0.17615641453512018 0.17224845475839368 0.16639060108281128 0.16239208785884413 0.1648583265432243 0.16987334401392531 0.16574789427265876 0.1467316987132353 0.12251723484240078 0.10932162550723125 0.11273697720641344 0.12373605271320139 0.13127769274190712 0.13381620265158092 0.1362797779727101 0.14012213569167253 0.14159685115046142 0.139112129073876 0.13707050000564572 0.13999203611421904 0.14578079356329554 0.14809712153466148 0.14455838260640355 0.13994947866554444 0.1410701214769714 0.14976474425872296 0.16083213118333403 0.1659724930230456 0.1613001418027801 0.15262473690518275 0.15074457199715185 0.15814644293877536 0.1632668366703138 0.15357800530446966 0.13293221413470402 0.11921475918878303 0.12385579952549268 0.1396559035910454 0.15154540309843256 0.15435093209846423 0.1550984759525151 0.16031091658618912 0.16713890400772974 0.16863451130242835 0.16392806924114398 0.15969935624495946 0.16219817628710229 0.17041845005386314 0.17802046389429213 0.18046030146944841 0.1787381323072174 0.17665241164688938 0.17596705935579585 0.17493685527842062 0.17131569719306838 0.16668543235168626 0.16687702690185383 0.17550660938251883 0.18627622270801336 0.18578639604457375 0.16821957300802262 0.14506431378564033 0.13516945582820772 0.14530061114251236 0.16463397692438084 0.1784041906713472 0.18229211122561684 0.18182975267564866 0.18221208670579067
0.1831082606630607 0.18228714660091924 0.18024405067572116 0.17977245204746242 0.18247603848837973 0.18689669820805194 0.19002483754615695 0.19054164328898582 0.19031582479101208 0.19195558526401457 0.19481608324918984 0.19481152663824547 0.18981314621008905 0.18484119060357532 0.18855677290480152 0.20178427630804088 0.21211856452670183 0.20533131168043545 0.18223039818906692 0.15919948014865912 0.15078586461731103 0.156070964218806 0.16376356458197414 0.1659507306458933 0.16303947044848335 0.15825151193748546 0.15284925770537686 0.14758966387113961 0.14487661243528602 0.14647009692572516 0.15022886762857926 0.15190347804530877 0.15063317323807981 0.15035896258596862 0.1540926583409103 0.15845087381434095 0.15664121243588158 0.14691008017065468 0.13625569705912757 0.13493877974092539 0.14648971953053722 0.16190550940796436 0.165166316582812 0.14805015103111166 0.12009144533394137 0.10128484497853782 0.10386956701030951 0.12243488671751572 0.14171864628530204 0.15173378688296324 0.15379866329407607 0.1537715955064145 0.15356987567776587 0.15127183224347607 0.1467909226888153 0.14344268187288656 0.14370632054487778 0.14632500413526106 0.14873345807704333 0.15051828051668958 0.15304368004725394 0.156550261797053 0.1590707765120813 0.15853247068420673 0.1557065906643236 0.1546318020789793 0.1585870489452489 0.16436698836809024 0.16250219813514108 0.14685093269307806 0.1242016702736865 0.11074151451196908 0.11676334834699598 0.13630546054801426 0.1536479401900341 0.1592389413410032 0.15746728981530234 0.1589618202476986 0.16761618383963947 0.17715734600892702 0.17974367043693903 0.17521855980144743 0.1703521531901848 0.1704611341908679 0.1743557231006065 0.17776919268651584 0.179107027839544 0.17951609898147355 0.17875812120288248 0.17533143296517115 0.1719845927703084 0.17590150073328156 0.18814866524099605 0.1963719201569946 0.18601995360042062 0.15957660081510858 0.13790596560494725 0.13930161104580202 0.16099896738096697 0.18432167991075035
0.19515328014779448 0.19533616031084658 0.19495179295286283 0.19855226989982142 0.2021896546497807 0.20166839042024942 0.19891928332574216 0.19858518344900994 0.20112824732334347 0.20245269676812114 0.19973810290251656 0.1944341234893381 0.18869073171666678 0.18247333057006668 0.17717715263989636 0.1785677640858481 0.18990265732792944 0.20287181214475936 0.2028749687989077 0.18628630317288353 0.16683398671845018 0.1604262108569185 0.1674252558459074 0.17481812848459033 0.17345665559204643 0.1672285439686769 0.1648324747849727 0.16781805753505563 0.17013273410621968 0.16723966822129074 0.16174506189575705 0.15915013971588254 0.1605302727673176 0.16200133111649992 0.16072390776897547 0.15790473586930473 0.1548193441608873 0.150243881904367 0.14522590198898838 0.14585191297453565 0.1548362263955269 0.1629553121034238 0.15687842785037143 0.13617972794750632 0.11599278221123571 0.11071173431439929 0.11981096069147786 0.13177798689349518 0.13749178604897053 0.13621232100971603 0.13155247687748223 0.12680392544313585 0.12475358345098413 0.12806051079266398 0.13658079731103578 0.14534386685724032 0.14850487730169643 0.14627511271751406 0.14519060851115487 0.1493017359673732 0.15356940433249128 0.15035547636179325 0.14173223368773036 0.1390401254798308 0.14726328538759184 0.1557032089405629 0.15061843304960004 0.13430960838042988 0.12438690480397858 0.13365345244911409 0.1563642383842524 0.17632932839990184 0.1844155991375992 0.18484337176163412 0.18661296450046494 0.19302472647282412 0.20019313229860305 0.2027180683244628 0.19874663007568186 0.1908405890194991 0.18385869007779762 0.18167194635272718 0.18450325780606688 0.1890448450886848 0.19133164765086158 0.18963434163818502 0.18572429175321067 0.18442741119570072 0.1897668222625435 0.19831212887325728 0.19851643983211417 0.18250636731702827 0.1587192836482687 0.146534795267895 0.15557534237049891 0.17495434023772666 0.18665856153645083 0.18594176876933075 0.18336306342328784 0.18824964349188816
0.19666838311828616 0.19840007541011237 0.19123457212056852 0.18301902332253514 0.18050368919193377 0.18140942733359264 0.17953250634135456 0.17424421940351215 0.17126069394058022 0.17437225708402987 0.17915126329067604 0.17691299391067047 0.16570098832299945 0.15594843766213903 0.1608715979654172 0.17880662089462593 0.1900271768037126 0.1774986800145326 0.14845994407547766 0.12798591052853256 0.13094978613835537 0.1474385119138379 0.1581646871089545 0.1574275203727689 0.15497280991883222 0.15911952215389724 0.16625498281697007 0.16816831731567855 0.16340175889713215 0.15725907386579666 0.15367952679867122 0.15163859684511452 0.14924447911284577 0.1475833488802978 0.14850899449860608 0.15033090598516982 0.1486454069378483 0.14263083324980025 0.1389011244718583 0.14576172598583753 0.16180068882335077 0.17291702598354322 0.16541711677942286 0.14220118894707245 0.12142555976413996 0.11763360756103601 0.1281837379415174 0.1403407323302585 0.14724164210049898 0.15195164628859525 0.15786723885003787 0.16191444717452927 0.1599977634087497 0.15472372253649794 0.15261087955999433 0.1547829440328908 0.15530173029963487 0.14977613100202875 0.1418000934364979 0.1383558593130902 0.1411181087369833 0.14537159398861757 0.14648658633498537 0.14421341479068708 0.1409986437294464 0.13973111373117802 0.14308409484111093 0.15055720797560743 0.15535491576646956 0.14937622202490672 0.13407133084215458 0.12235128814731151 0.12576312895634484 0.14176232333473968 0.15738024913010915 0.16419087725233766 0.16524080238590852 0.1670050052724832 0.169587366596201 0.16835007656376427 0.16270330509047892 0.1586214903008536 0.1614463722794433 0.16898767810556603 0.17400842817324924 0.17264554436285995 0.16817247125099896 0.16611979870313254 0.16744748712398896 0.16783525606897717 0.16333468699003714 0.15598178149350253 0.1531818471793697 0.16011916861262482 0.1720906614848851 0.17674656995013835 0.1667833579035004 0.14933235466325462 0.13973972629259593 0.14633206216015207
0.16386760288289415 0.1813695661901734 0.19264531497745144 0.1979554031208715 0.19895570375021285 0.1959204008345692 0.18988824358401915 0.18453354372462366 0.18360776625326827 0.18652635656738334 0.18783147432805208 0.1823892365881532 0.17157676612668246 0.1632582222130463 0.1638740418591287 0.17039912656632605 0.17242463547550366 0.16434288767949762 0.15399097243615595 0.15479848537776636 0.16792356423394672 0.17717101534467666 0.16675285719168095 0.14153948936524025 0.12346930864404626 0.12779158032308138 0.1481821853121394 0.16659229668799605 0.1726646606806167 0.169904001448004 0.16615093099864656 0.1637764766079225 0.16026831231415598 0.15442616245552201 0.14846531703806504 0.14464719832746345 0.14259605646786988 0.1409412037676868 0.14002104765263165 0.14129609987090164 0.14451882298546603 0.1470744453043721 0.14663687033830466 0.14399735086311846 0.14311941834002836 0.14784851056170012 0.15710396033631535 0.16353019120924472 0.1596039387184997 0.14625710187826454 0.13329992403811436 0.1299307594419194 0.13658977348006263 0.14727044827057323 0.15725611111262272 0.16570711193803025 0.17214174687620026 0.17470853777868514 0.17339078852802464 0.1719970394643006 0.174300175168863 0.17929804775685868 0.1825851774679678 0.1819386999230697 0.17944158059409265 0.1781633910766828 0.1786555195754859 0.1788687576342318 0.1760048664753386 0.16894792310002354 0.16108182832934434 0.15971480992018341 0.16842176384700303 0.17929395114241697 0.1780293002103423 0.1602939964781863 0.13975799805781525 0.13537613095050835 0.151551238363315 0.1745330161110488 0.18831710498163587 0.19007111399858603 0.1881957436227432 0.18915036556572873 0.19105495001447054 0.18983354568423957 0.18674630420312127 0.18655864784355203 0.18982459833634258 0.1907093077805837 0.1839369276715615 0.17202754766015196 0.16315175072154373 0.16171133505225033 0.16356770724231515 0.16288053602149524 0.1618456450943587 0.16811364775828488 0.18073628476763687 0.1853082167589358
0.16969744081218835 0.1411683168024596 0.12029579346322208 0.11844715579459922 0.12772862061634002 0.1337353912507149 0.13178486915713164 0.1273747341964581 0.12541622230539032 0.12476776730128318 0.12268282019667189 0.1197624186370095 0.11853487860416578 0.11940190068529825 0.11996093896867598 0.1179227037764301 0.11413217634455353 0.11287292410197966 0.11837076555945168 0.12953211522063512 0.13896640351311185 0.14030650986083576 0.13690120411196693 0.13879534168117746 0.14851487434410426 0.15501162506292987 0.14744325437181904 0.13138706866806585 0.12379848844432026 0.13265430797533984 0.14900802657282383 0.16073143639903834 0.16725291828344935 0.17617093898246694 0.18982862946402893 0.20218509217410058 0.208883674085321 0.21427038577887844 0.2249774844505776 0.23939466478585833 0.24741174963670914 0.2407093535764238 0.22144067951531737 0.20033584168421897 0.1867139057409246 0.1800094437062187 0.1712749208723619 0.15465786960067449 0.13699536962326145 0.1315397722552598 0.1397761291882737 0.14488384978920815 0.12974459950680942 0.09927795201038686 0.07789292420355519 0.0838774993284909 0.11164273340584609 0.1412298584999119 0.1602486388229332 0.17147997333985424 0.181174250743731 0.18713723773473306 0.1824600125656573 0.168049527223223 0.15554721550085693 0.15544983356187964 0.16511753288709402 0.17219200023742068 0.16955100147766394 0.16311591824238103 0.1631539817997396 0.17136136989549533 0.18093071149735523 0.18776499345539568 0.1948072353747633 0.20270573905592593 0.20275612995896808 0.18630083571740208 0.15913292823900177 0.13933947180753295 0.1391716665003592 0.1536048807829506 0.16885284227879205 0.17787698513602246 0.18317311302664072 0.18673966402207318 0.18425100665369842 0.17200861469679682 0.1551818785226698 0.14385709970655253 0.14169573601419794 0.14290396048058399 0.14107447240282778 0.13722273803231236 0.13720135617150006 0.14407735345766778 0.15603144191061163 0.16984665043163458 0.18155083059931962 0.18291099352196186
0.1637458230157631 0.12385682331548208 0.0802752754502138 0.05574901648052712 0.058296252154588446 0.07539305682423675 0.08876360718083608 0.09121106301372627 0.08762280265307186 0.08371970507052089 0.07906404246302937 0.07158641469385352 0.06437640323187835 0.0634305626174663 0.06916466353054153 0.07458060711082352 0.07397800863664211 0.07031233620230116 0.07016028142404797 0.07340977302434626 0.07450765283253673 0.0754979275296118 0.08919581525368897 0.12137559558469176 0.15575335912572177 0.1690551700586937 0.1608641296389141 0.15691290365198093 0.17887120986002245 0.21980854846592837 0.25572500664415904 0.27479854430346 0.2862441510173837 0.3024578617109346 0.3226769061702093 0.33815829484231946 0.34653193815841643 0.3543378344086905 0.36779180229023695 0.3866317895125049 0.4068591689267648 0.42622591135357607 0.447853737023277 0.4792284759600416 0.5194739308417174 0.5399886834864348 0.48968161254018244 0.34146168975482183 0.13447191680071516 -0.048483235140580325 -0.1505198751391154 -0.17584709506575108 -0.15797486629826513 -0.11531606045660661 -0.04960326055275128 0.027812162341641782 0.08982694372374411 0.11662122534371333 0.11401960069322585 0.10354201274840555 0.09893319184501323 0.09695433140738452 0.08866810997002376 0.07407384322313385 0.06293089571277385 0.06248046845357091 0.06779865504564662 0.06769400324445038 0.06012860689285474 0.05679086019094354 0.06822459228725085 0.08810752870889957 0.09942659938221406 0.09611988071320389 0.09146925225401853 0.1018162481985134 0.12674996393992968 0.15026844772371048 0.15957650130196763 0.15765091949496704 0.15650328718865333 0.16208511935139 0.16886575200742604 0.1680826630011493 0.15822336414566976 0.14581469642258385 0.1370528576573918 0.13137046652217418 0.12455844538407489 0.11605856988634493 0.11013904909429284 0.1106804325024978 0.11826721627598875 0.13215556072652415 0.15063327965483406 0.16824619978401315 0.17736185591956552 0.17575493339148593 0.1700097655479104 0.1685609942933823
0.1733869267892649 0.18114402873182023 0.1900957979427005 0.2015788211803147 0.21467369832096778 0.22338344634313298 0.22137259079233745 0.20824523046954552 0.1896206993850059 0.17173039476785712 0.157490245538357 0.14784768634724565 0.14522616258910054 0.15362040344880384 0.17394064124154326 0.19941437247338634 0.21821316389566028 0.2236889553877658 0.22118105852591302 0.2209618664818049 0.22450313247829057 0.22248444095926603 0.20814768203908138 0.1878815041889333 0.17390047167679223 0.16774267139151064 0.1558333036400404 0.12424740124332423 0.07697627496005753 0.03680645007534183 0.02621107916406075 0.04761299302089065 0.08328787372164906 0.11339830169164272 0.13162313659120603 0.1437290633602647 0.1555716145577233 0.16606793800157665 0.17030359805911863 0.16652238817687393 0.1608178495803048 0.16635943934743674 0.1943621182154892 0.24125988849630908 0.28735163297947636 0.3141615116181695 0.3230267014237233 0.3319794571544879 0.35433530489426185 0.38505536397658946 0.4100179022679328 0.42589413475419363 0.44799134363786447 0.49605202649162583 0.5673512335683795 0.6215931900844723 0.601726558382052 0.483019816855313 0.3022606684859674 0.13039805866871862 0.01596690327337602 -0.04165472545936847 -0.0720371044463864 -0.09937872539526263 -0.12577329931866557 -0.13677426423154035 -0.11972298790635023 -0.08013992350118875 -0.04041240197156766 -0.020234344121456773 -0.019711236125396516 -0.02367107195703203 -0.01999482169455285 -0.009973065392271047 -0.0017225844862354639 0.0020285866463561884 0.007174505309409527 0.020707850657386898 0.042553559969079384 0.06586417166341293 0.0840570652988699 0.0956173979779492 0.10222732127746315 0.1048129103802141 0.10335003757400311 0.099652397076526 0.09810259094584389 0.10241366731591282 0.11174275057259712 0.12036492519974448 0.12190637821570148 0.11562310138007992 0.10948809251581196 0.11451935397230185 0.13223607443258784 0.1487378683968771 0.1464898609578553 0.12380200771875866 0.09901871116533664 0.09314257545742849
0.11056113453410694 0.13839727259344664 0.16174490424405644 0.17599737960567602 0.18551316550093214 0.1949794122647569 0.20486620538145547 0.21381378419805078 0.22215535732589362 0.23124848578540133 0.2400154908446063 0.24428130951755675 0.24088373793298878 0.2315103541187405 0.2208484541290463 0.21163954779967692 0.20394466519401971 0.19888640466932675 0.19881123737883324 0.20143358097182323 0.19779770657492937 0.18090411294593609 0.15508872270110666 0.13260042926610358 0.1211581885397699 0.11846968152104398 0.11871289890834726 0.1197919058315282 0.12232699888663634 0.12530050202559123 0.1268038498973856 0.12851727576770303 0.13612854814175454 0.15367916828680037 0.17834421582099622 0.2018585737580736 0.2170383019021662 0.222608442410579 0.2222229274895562 0.22023789487032702 0.2198459316736987 0.22461270844702563 0.23787456726272016 0.2572859039329947 0.27250603180611177 0.2739591691099474 0.2647351644366974 0.2596913852003984 0.2711725399124306 0.29847289573494046 0.33253125845823633 0.36716477094393873 0.4017919080503944 0.4348045461944471 0.45974622154108435 0.4705517739472876 0.4678898715513385 0.45751002570405475 0.44359245306646206 0.42629249576647693 0.40514555243322053 0.3819620673701773 0.3594715854206404 0.3391310715472615 0.3223369629004529 0.3130053525306487 0.31492728708121603 0.3234387770648205 0.32288287631990287 0.29945458468590713 0.2584815555048412 0.22363366729029327 0.21485956961871033 0.22925351904538577 0.24680255773325815 0.25298665956551464 0.251201717976831 0.25290641760239896 0.26120182512635426 0.26883343564585455 0.2702373905620034 0.26918675039819256 0.27186001001728266 0.2763463480997866 0.273742506213436 0.2584320910434154 0.23303698250187255 0.20452051625414955 0.1810700339419869 0.17144906381757888 0.1782919505606927 0.1898974657523421 0.18842960074616233 0.17332230019615805 0.17121303944049673 0.21215738056014707 0.28839531234109916 0.3361078811437665 0.27102517941312065 0.06308457666315535
-0.21873050434182464 -0.4514295049882353 -0.5589044195181749 -0.5628518212799891 -0.5338268373427324 -0.5092527314677631 -0.4717874280652743 -0.39609613799302534 -0.29388755517181436 -0.20402118034536582 -0.14815370701456182 -0.11003274059999155 -0.06198134056403608 -0.002873972718873458 0.04068691187036932 0.04997748114506114 0.03958822878319634 0.041252602593067754 0.06912787769756155 0.10913867725209903 0.13964761374168003 0.15359569819768723 0.158139798184736 0.15960845101915236 0.1559472122334686 0.14354751260060492 0.1256702006625886 0.11020671824625672 0.10064104505638938 0.09284334646964648 0.0814544538500484 0.0667651865777258 0.05350956344916396 0.044898252628623604 0.041312498699639266 0.04480853047276192 0.06010796306603101 0.08697558930129308 0.11400748424145245 0.1265653308012541 0.123155590546921 0.11969959968940398 0.13418856629880146 0.16924598838133667 0.21212605276256355 0.24887955681732724 0.2743938039198893 0.2904027046087313 0.2998848885820399 0.30575958161093175 0.31117680759743804 0.31746049084774164 0.3230031621042654 0.32640511255364935 0.3292825327329494 0.333486436599604 0.3369531670792903 0.3362840421083444 0.3338855552516314 0.3379973930265434 0.3522402901056533 0.3678421975285645 0.3708893503687007 0.3570647101661697 0.3356438544288963 0.31876224713471135 0.3101120416619465 0.3047812100743619 0.2963447120763004 0.2814487056501874 0.2595612795768751 0.2317288499573425 0.20020060120484037 0.167747517645503 0.1364186427492854 0.10678431232545248 0.07807678058633669 0.04920661676910329 0.02037824518381861 -0.006269890838913875 -0.028163577634974728 -0.04394411397984676 -0.053123836236253004 -0.05597142928585645 -0.0558470221622508 -0.059488996958258926 -0.07051724635528389 -0.08250551372163743 -0.0828162052097053 -0.06547172734518052 -0.03798761453451601 -0.013718259616290267 0.000861220468689118 0.009696227466955058 0.019990025349977823 0.034608524432150914 0.05189384728403206 0.07062144457444589 0.09285241152309451 0.12125739516005948
0.15464496518421414 0.18775375648573558 0.21571142436913487 0.23754892467547836 0.25568765235880025 0.27406146791397634 0.29616605288864734 0.3211111096649968 0.3406243746949387 0.3440598897821849 0.32923071752218935 0.3062130198990487 0.288342992217863 0.2810620212821789 0.2809894482890169 0.2832331624692458 0.2859289463597843 0.28799696857057944 0.2864779688423752 0.27898977373264616 0.26782425588864267 0.25880426004468704 0.2550946225944618 0.25362786528188613 0.24911105651581644 0.24104585026128544 0.23505717451075742 0.2363857078312908 0.24318971796237818 0.2484833325649186 0.24884691372991033 0.2480111985342198 0.2498482573820392 0.2513253439739875 0.24663299193389074 0.23644819614173132 0.22833723069542142 0.2277933457569063 0.23252219556433742 0.23664687600338227 0.2376675701209521 0.2371999145432124 0.2367553469682991 0.23579484669214765 0.23356077102137476 0.2298631873931139 0.22339740088535442 0.2121128649713808 0.19723970074548403 0.18518906718803477 0.1826440800561872 0.18954691906249418 0.19854681695057988 0.20199750480802522 0.19927418035512312 0.19726869158128424 0.20287015271284392 0.21376420879871338 0.2185279247344063 0.20934897460043267 0.19360613760110645 0.18793511891701922 0.1999914491408973 0.22055588834383105 0.23550170584342303 0.24141998362269138 0.24605212266607152 0.25621347559543145 0.27034660108330266 0.2830954951139948 0.29253772215569046 0.2999754528727352 0.3051426082483237 0.30602549603641865 0.3040526507108171 0.30581717484603654 0.3163004129574856 0.33145705351182225 0.34226644710116055 0.3482784584692589 0.3616638811296154 0.3910670055779272 0.42470316991286033 0.4392820114804454 0.42709137212038495 0.40661416960942104 0.4039269984595266 0.42805155664068856 0.4622939565917347 0.47074677389358516 0.41540631540194456 0.2824988075749777 0.10009055834354137 -0.07721283268124587 -0.2069088274277624 -0.2811101528919076 -0.3147440267979838 -0.32158058385293536 -0.3055735958727666 -0.2693568435570688
-0.2229574402951076 -0.17999462212889045 -0.14511902175580982 -0.10814275526007985 -0.055461356049008356 0.010547467746577405 0.06757936143932174 0.09390161196961357 0.09095009932950945 0.07967621776452802 0.07506918481297423 0.07201682129685351 0.05955477489744228 0.041595593437770986 0.034843214521526104 0.04757543219790088 0.06852829313644532 0.07938323212637904 0.07333456724110794 0.058304170847151865 0.045479796487330866 0.03893565351934125 0.03574275720056652 0.0326270292350143 0.030398091897508722 0.03242034656904788 0.040839414002069085 0.05560568281893065 0.07566646033616833 0.0985781618820536 0.11963591448069666 0.13477891026798564 0.14514670361904758 0.15589342030996262 0.16948082607452045 0.183575021836895 0.19743262896038724 0.21544285737559862 0.23903237704217214 0.2587839933333355 0.26288648385940944 0.25363381047940176 0.2480529539931451 0.25942147989348346 0.2833893413807993 0.30555469259703605 0.3184333356011235 0.32625911475771474 0.3351139316407601 0.34403605020300226 0.34792293214064235 0.346105309595471 0.34434094893267414 0.348090094324298 0.3563979515309959 0.3640931302018098 0.3687642690128589 0.3733542354989421 0.38175884783257036 0.3936799861622184 0.40456721994262784 0.40930906197391326 0.4055470194408099 0.3958128366372469 0.38806084711325217 0.3907186105901657 0.4027878190345575 0.4107707928451278 0.4011637534393635 0.3763840087091079 0.35369928987996413 0.34749453781550294 0.3561125282266166 0.36651134056046997 0.36784923255023316 0.3588202114162204 0.34467191412101533 0.3298920712455581 0.3135042758522685 0.29039759958012695 0.2573450693058977 0.21771341250208143 0.17928800952347854 0.14699607509393753 0.11854532623232665 0.0877922830229401 0.05171259942864776 0.013062180371303588 -0.023642867256713496 -0.05727519023845661 -0.08990393497945166 -0.12182876740967506 -0.1489767576276954 -0.16755173064906007 -0.1810971586870145 -0.1997339612188528 -0.22971011382523568 -0.26482214131948856 -0.29084567180037074 -0.29861799409228384
-0.29121660418107465 -0.2785869745169142 -0.26747581014330246 -0.2578662368842235 -0.24755985653098236 -0.23707240709919927 -0.2283864473760621 -0.2203701853879494 -0.2083927970640524 -0.18950402094242222 -0.1661639610262878 -0.1430520179035854 -0.1208957940288213 -0.09525010693205473 -0.06163420616465105 -0.020692544253209866 0.022193035409114707 0.06116066211614694 0.0924780524655394 0.11425117973520167 0.1270877003919191 0.13634556265473463 0.14996926368646898 0.16989705907095518 0.18729467322125126 0.19135514060720937 0.1831456127787371 0.17609196283698797 0.18108725348120167 0.1949583416504737 0.20623853092821137 0.20925871397627754 0.2085534635461526 0.21050638184048062 0.21549464599543797 0.22026556409769343 0.22439625640028535 0.22994490145387367 0.2355719248658365 0.23588023439453154 0.22860805899655381 0.21924454132642685 0.21522817402781155 0.21696552087210766 0.21805837346778975 0.2143416334510724 0.20897079016363734 0.20669252040079614 0.20637277986454503 0.20381242439276304 0.20109827443525802 0.2066346340566421 0.2224533184209986 0.23664017320297123 0.2346867772458677 0.21695565849603474 0.19978380824316394 0.19914622023785847 0.2164731979761117 0.24019275914719757 0.2574277618889128 0.26296132711836767 0.2598595784555978 0.2544755797367061 0.2508237911482494 0.24833189014969026 0.24433386817972852 0.2381450605271216 0.23172083798213225 0.22650725684596046 0.22144909490763154 0.2153198478680387 0.20999112953975438 0.20946082943393493 0.21500275318426917 0.2222406455447766 0.22463103426626996 0.2209787427224179 0.21850579588646515 0.2253818543834111 0.239226400972843 0.24676057878171892 0.2382051052084966 0.21965368453107784 0.20720556957485634 0.20985944495493336 0.22198564630454104 0.23248041564380117 0.23701377122100786 0.23912115127201167 0.24251571757356968 0.24657380212686772 0.24887003697123922 0.24827431760515906 0.24456432154947458 0.23804922717666765 0.2312732760438903 0.22871961556387432 0.23246289468137157 0.23932360200143538
0.24446595414145916 0.24680098224142802 0.24825735986767672 0.24885627138208102 0.24734868494532022 0.24786154870419067 0.2596403993203702 0.28483501835174774 0.3109306436238405 0.3233412018806406 0.3247847865561967 0.3344647012910602 0.36606324482655345 0.41242724590090857 0.45492177500786324 0.48294911988496586 0.49983556113251787 0.513078742476704 0.5255863851693453 0.5375028571244417 0.5522970980720733 0.5790172706770808 0.6281383487817864 0.6974718219028634 0.7530162468092537 0.7332048193494757 0.5957120780913606 0.3666502975080212 0.1291371069165974 -0.04229270659706976 -0.12854982490746023 -0.1544397965068731 -0.15120429678908706 -0.1359388108353312 -0.11254150482520985 -0.0793706213712019 -0.036394658195632736 0.01016258679284726 0.049326390728423854 0.0723732819842379 0.07777078345884311 0.06931569102648429 0.05210714675837289 0.03250872579173476 0.019876833235047627 0.02337894334036509 0.044714062140260434 0.07592256370840646 0.1066962559826858 0.13331244883522808 0.15979336270292208 0.19282053718184042 0.23737129652593902 0.2939359171809227 0.35589549047000696 0.41169925531699625 0.45397403732222613 0.48507149092237223 0.5098592060793685 0.5257309628083274 0.5257023602230317 0.5103505584192299 0.4903697333172884 0.47664681290691324 0.4722212113512307 0.4710992063249289 0.4549160077593651 0.3917940105362596 0.2558172003746689 0.05900827762688382 -0.1447963642572493 -0.29927910542589037 -0.3864785613129568 -0.42425570287009107 -0.43163404584514314 -0.4090024144808909 -0.35244140533684076 -0.2747254934985481 -0.2006020749536637 -0.14216458801924953 -0.08914382648054528 -0.029394112487550014 0.027887316540187307 0.05952008546107945 0.05791992725300031 0.04368902582870143 0.04515513566235868 0.07131073192178826 0.10879815793978444 0.14065820545536734 0.1621268368814404 0.17943713612738968 0.19891128992888493 0.21983631100702367 0.23610383248450423 0.2424075587086137 0.23857557159279563 0.22902242023836686 0.21893791658157025 0.21084780892739802
0.20360176027945867 0.19346342569371378 0.17655110318663833 0.15196586279733676 0.12330460181559613 0.09564331426993261 0.06965075451887935 0.04035491920298445 0.004783995528556827 -0.030136893701334173 -0.05259941866078037 -0.06080062674843016 -0.06750847357504111 -0.08482111631783987 -0.10741278790904797 -0.11690149504841237 -0.10263161657017397 -0.07316590965103227 -0.04586020027167616 -0.02897222375205448 -0.0168260689383993 -0.000351603413423501 0.02159637997003553 0.04229031310186494 0.056004202825620616 0.06429113077820454 0.07324728752405613 0.0863115442063946 0.10116993597075952 0.11326235964091265 0.12094240135357906 0.1267686979916179 0.1344094338828125 0.14516291937035727 0.15804411040112032 0.17230184589734254 0.18714896265675102 0.19830185791759228 0.19874955194157276 0.18674793828146993 0.17109294186809063 0.16433024512009076 0.1710281591954523 0.18546195861799353 0.19970799444831233 0.21036883303885098 0.21774995632057356 0.22283945885478887 0.2269678340844706 0.23173410598468422 0.23696729363303753 0.23998516407370557 0.23863177739297342 0.23443125260463882 0.231397725621495 0.2319358715212373 0.234740189279831 0.23656365664955814 0.23536069015480376 0.23179859291773725 0.2288472267740451 0.23044711406799143 0.23857392506320424 0.24918090097047338 0.25278274814066215 0.24328342443505666 0.2263354236572169 0.21528149385266554 0.21800511702167635 0.23032536171421186 0.24242763474132195 0.24855918736920618 0.2493389556669895 0.2478236475837313 0.24638441820688214 0.24638540963377561 0.24792018237280222 0.24904365466177436 0.24679960989885175 0.24032299353116557 0.23284800785105197 0.22974477745811542 0.2337094735231451 0.2417482530820726 0.24738811302284935 0.24623126257386008 0.23958570438179583 0.23318945919939324 0.2323289007145073 0.23674808785741652 0.23948026816977638 0.2324748276866115 0.21541471602264656 0.19799578025582792 0.1914438575476058 0.1981679771474173 0.21104174937877884 0.22160694746917492 0.22651953037408906 0.22631282485809848
0.22146321363434363 0.21269417696806653 0.20415203439969104 0.20224540447562322 0.20883847017011864 0.21738870965129042 0.21891852757705296 0.2114754944032031 0.2010504948751297 0.19362842036525607 0.1898876016771524 0.1879804023341583 0.18704035243517433 0.18590484297118315 0.18251459893983427 0.17798543097962258 0.17783248423940362 0.18443420505603197 0.19032687958638225 0.1845357102210024 0.16599017824375875 0.14645928067214578 0.13867838841344424 0.1442144410747041 0.1545115125542876 0.16129517979747002 0.16296695333813513 0.16210158672124206 0.1609873662398973 0.16112231131943677 0.16402865344005513 0.1696552449956843 0.17482148929880165 0.17559493921642003 0.1716090041453531 0.1667126774734285 0.16484519791128366 0.1663511187043345 0.16899632441675466 0.17133285998466397 0.1739133217222556 0.17825250359601336 0.1855660486878833 0.19491563771864986 0.2013184108777291 0.19812222608340613 0.18432117246619173 0.16858178134704072 0.16275207721288104 0.17044855140366935 0.18355802136498706 0.19069039705129556 0.18818113726885477 0.18222298130383144 0.18104669794211403 0.18640678037595204 0.1930791287258263 0.19539453618064703 0.19271691101451768 0.18853575753860316 0.1855712258503536 0.1830068340910151 0.17869997154834777 0.17304278320690986 0.16899028929553314 0.1678974139691148 0.16732086334964946 0.16500073144774535 0.1635416962314964 0.16721703037629967 0.17360301443116521 0.17304865700941494 0.16005522259650004 0.14271469638575598 0.13620094912073136 0.14639969458539595 0.16333790432643905 0.17275448735230622 0.17202383518664258 0.17133209754755763 0.17948854708085582 0.1931048368457641 0.20286988680567827 0.20766173898828308 0.21750049497381022 0.24238280739172868 0.28220422690951297 0.32910273865168116 0.37633179995195637 0.4217125206086798 0.46380710428793825 0.49890816321775133 0.5242489767217264 0.5423718525048359 0.5581985632066854 0.5713349245667823 0.5763694822373256 0.5717652565849738 0.5584250298235979 0.5232433015505902
0.4375451583192669 0.28809339334013956 0.1039556963015913 -0.06181382265195215 -0.17494374117262396 -0.23652193639778255 -0.2646840899576974 -0.2725149154494668 -0.2629083429093468 -0.2357122815908233 -0.19542945445169438 -0.15244222916013433 -0.11741434996319751 -0.09538006716217558 -0.08561877173261413 -0.08415914397003077 -0.08289495551270146 -0.06959007107653463 -0.03689987187502923 0.006502892211929574 0.03998352889336494 0.05070558419320296 0.04695553017102222 0.04870272456440709 0.06663761822749092 0.09325676149239534 0.11311407819697372 0.11807718500179686 0.11193244538638818 0.1034124712027473 0.09779193616532614 0.09490209255417112 0.09270457405644263 0.0907498413737306 0.08983230123925522 0.08942793514738108 0.08739030402749533 0.0831050769016391 0.07948307801890685 0.07977558986553465 0.0831161544013223 0.08603864287416933 0.08863505299822308 0.0954647507454132 0.10801909664881086 0.11961187008777549 0.12258968825133247 0.12023264392277608 0.12670939406711612 0.15285392715693313 0.19451108879883816 0.2373402264349732 0.27108982451575936 0.2960431898736117 0.31713584343531687 0.3370590545627772 0.3569408040072328 0.3795870164694769 0.40749572277425833 0.43816903248772754 0.4649932033798204 0.4840407564852357 0.4978750571226486 0.5114683226677629 0.527018868556465 0.5449326984636068 0.5662209663324751 0.5889015411351047 0.6046071105706632 0.6059282438515652 0.597296385499008 0.5918048220439726 0.5951481527040775 0.5979883696694193 0.5869756789252898 0.5590990924964061 0.5216251196497023 0.4809632375459647 0.4364576163424405 0.38505922267540416 0.3282818566715548 0.27255692803109527 0.2240376298179275 0.1846302370301232 0.15285199093078428 0.12695062749354682 0.10543223654520936 0.08460523307727318 0.05915025723312095 0.028638459035679305 0.0009078314590813528 -0.01653430379013823 -0.026468540592613377 -0.035703690727167406 -0.04094588139117845 -0.0347715847390045 -0.03107812627971636 -0.06983909795955062 -0.18022357849254458 -0.3419027498745687
-0.4955297241736857 -0.592622710913241 -0.62780045227612 -0.6246494591626817 -0.6032855293519537 -0.5683053129115702 -0.5203800007934618 -0.4678858662957601 -0.4241679484386226 -0.3978640233122199 -0.388032305206511 -0.38473164741843885 -0.37114846805492363 -0.32984167961627975 -0.25512123588722646 -0.16077682222341316 -0.07014029643201929 0.0042271806910052084 0.06819509712133126 0.1335227439607695 0.20447348732769657 0.2813816402502982 0.369203043969433 0.4664811348006189 0.5424334800907716 0.5435440261578351 0.44135734831902673 0.26859525889170105 0.09453410297521261 -0.03026734735448087 -0.0943317354194456 -0.10333003483462844 -0.06236385802485819 0.01589810596185583 0.10272420093265586 0.1665296433231478 0.19435436432426084 0.19662598076567983 0.19129151580953335 0.18574556308438941 0.17541205559501638 0.15820744290029412 0.1452858849978147 0.15306840389443513 0.18581895412593463 0.23067391547706492 0.2710574727237785 0.3019431502772721 0.33046149107667727 0.3646438151932531 0.40552011815265215 0.450962390295821 0.5051861984372346 0.580221264893063 0.679924458695109 0.7752459968122467 0.8014118452923781 0.699392707128348 0.4727842976147061 0.19626736682673526 -0.042734451366547764 -0.20594487121199642 -0.30079957771379484 -0.33003312374058735 -0.27413073965118606 -0.13240616765101584 0.04322693112734873 0.17989918795518822 0.2442539181466308 0.2558519738153999 0.24571282108568263 0.22148810578583114 0.17843631801905152 0.12758144293382748 0.09634665761324035 0.10266165771017102 0.1391049348787075 0.1852194717828858 0.22839160553619922 0.2683683012458531 0.30678712964391996 0.34055227405014915 0.36662837107800883 0.3874664919548931 0.40731866203451744 0.4252262231277389 0.4359706982291989 0.4384076009826803 0.4393670277187954 0.4468700976159198 0.46116595752720746 0.47522078444506294 0.4827342971512536 0.48161596028129333 0.4700379837687605 0.44519560479101183 0.40941285389227244 0.3738056819344039 0.3513737525107776 0.34669988052056355
0.3541791895172106 0.36500930404471527 0.37356541275070715 0.37805668392691166 0.37881061693081874 0.37781582516905476 0.37810860371862526 0.38117158059007383 0.38492773096028676 0.38554917697913216 0.38108285861841995 0.37222424438498614 0.360066270566951 0.34483268878976886 0.32665285219719564 0.3054368299691067 0.2796976714553227 0.24779922992869663 0.21080477630075328 0.1713029107237897 0.12855928345626366 0.07821805748592801 0.01896518621442021 -0.04323339091511011 -0.10031463693575746 -0.1497358273604784 -0.19420998603298711 -0.23549973059901336 -0.2720762407434554 -0.30257066476806244 -0.32771541963390016 -0.34736305011025687 -0.3582683587191965 -0.3576763504687027 -0.34875829195881497 -0.3401640500650917 -0.3387890379177806 -0.34318113552455637 -0.3446099897231373 -0.33492510212632165 -0.3138770692298405 -0.28891240364443405 -0.26676252743620366 -0.24482437746094424 -0.21347829743046534 -0.16965386486914663 -0.1252762419992547 -0.0961248120909774 -0.0817947802423548 -0.06300337876309267 -0.022285911867980557 0.03682661783332555 0.0951700717037629 0.13879980005024858 0.1688849171927073 0.19256468458121762 0.2116127003653846 0.22394214767674508 0.23184277639419934 0.2422273675176843 0.25806383234623664 0.2738819734447981 0.28208935208835395 0.28164361705012764 0.27835528674720017 0.27754181198613725 0.2780429454732676 0.27370147312079685 0.26078870417644845 0.2439957848189626 0.23329784442468512 0.23325240428540883 0.23750237658247683 0.23667908264681253 0.2299417313042318 0.2251740686737339 0.22873619730607708 0.2386389818710404 0.24799089978042413 0.2521651441362922 0.25146639314636327 0.2487145955801827 0.2460678112827401 0.2442121508318953 0.24370520378045096 0.24590814894745458 0.2514920540513765 0.2581957930316266 0.2616874937280482 0.2595450507196232 0.2532641226553085 0.24551834869125813 0.23729507034757719 0.229779075732458 0.2268610482410165 0.23108071323217658 0.23711610069269856 0.23498399085119626 0.22243293206287434 0.20975459741539473
0.2085546681622854 0.2188251544837399 0.23095811322862053 0.23804351762017353 0.24135820020753052 0.2443392861299336 0.24640487677668696 0.24538653460966686 0.2430295912115954 0.24368869523690315 0.2473649448767223 0.24791244793279452 0.2407086756246148 0.22989066411262193 0.2242928668960207 0.22626683425039604 0.22824652029057585 0.2229831342554943 0.21502983437823478 0.21688416933967763 0.23197142854995145 0.2466322729435908 0.24455940769300238 0.22694917095795272 0.21222351595930203 0.2156020033790539 0.23391120767916623 0.25181711341293284 0.25886846213421616 0.25754275575114305 0.2566769081125389 0.2607029160724169 0.26632893164866894 0.26796702937925815 0.2643459222532888 0.25916023478278294 0.25601359467211093 0.2541959420921143 0.25022721085925637 0.2424266096565854 0.23247458177420258 0.22380394084069907 0.22078396270653483 0.22719219852217323 0.2405948386597199 0.24956016313980173 0.2431292916821494 0.22437599842875713 0.2091431325338571 0.20918058888007662 0.2206033126203085 0.23112786849231534 0.23471685798740427 0.23511069855772632 0.23690775757302898 0.23849476996426158 0.23553685645584427 0.22773087273147025 0.21837906018227238 0.20880272142954762 0.19754068123585242 0.18559133772943281 0.1779647399501977 0.17711488124510416 0.17830101675462184 0.17621693124297622 0.17394212527857367 0.1786067090672652 0.18827585778383835 0.19107962981910265 0.18077989855234858 0.167047808580773 0.16518282280508234 0.17909553480980608 0.19934198637327147 0.21623271984233713 0.22999641391122777 0.24736965184130802 0.27177029804879416 0.299252139125088 0.32296122389642223 0.3394506194054732 0.3507338904298067 0.3622221905507006 0.37933026560036975 0.40356188919676766 0.4298395537099761 0.4505161965001363 0.4657339938362446 0.48638234003923564 0.5199323145094015 0.555138024570381 0.5699659204855972 0.557048205567338 0.5339688256869721 0.5239598904850352 0.531421979298559 0.5427009278302064 0.5497267494740483 0.5647919730165022
0.6026249126694947 0.644655867818639 0.6317781731806571 0.5115371893841287 0.29808431820833153 0.0715836232779035 -0.09061840678488957 -0.17301356326183884 -0.20814686872092433 -0.22061570395670477 -0.2019782015917967 -0.13783018119870014 -0.0434981928093916 0.03738266861455916 0.06826682185575944 0.0480991420726883 0.004444339055139105 -0.03503259448488315 -0.06014966647199479 -0.07328054248118547 -0.07745483087901613 -0.07319709759039728 -0.0618108875110344 -0.045640256528894314 -0.02549820781438146 -0.0020423216090286367 0.019859216771591963 0.032483256557445904 0.03359243523628551 0.030566994955868853 0.03262597086264919 0.04005067854022115 0.04437624126782059 0.03920894618598764 0.028658963992129537 0.024594066351171513 0.03539133876920559 0.055946400287640405 0.06960690003964187 0.06364237575850747 0.04350284833003491 0.028332338205252675 0.031277451273979205 0.04746146556704325 0.06251052621081239 0.06878636197750451 0.07001935483870121 0.0730719294106275 0.08031156549988964 0.09045373939279994 0.10305597395533077 0.11954342018187293 0.14049968219818826 0.1639549250949096 0.18737149442097406 0.21044285689055375 0.2344273132125567 0.25938549201858374 0.2843539666586479 0.30948414681783293 0.33428838165042557 0.35396836799553777 0.36276353087953545 0.36292702814754396 0.3657082692509365 0.3799124149809078 0.4021901823911386 0.42161685931578163 0.4313585682091522 0.4321873033079549 0.42639066989476904 0.41354686746636354 0.39373032217764936 0.3709161876330264 0.34956078015032793 0.3287106191329883 0.30266596625501685 0.2684098098281331 0.23039735854894536 0.19639211855809535 0.16976835529245182 0.1479050024242301 0.1270532188990481 0.10527854726612203 0.08029378715061788 0.0489436925231979 0.01216848073801111 -0.021809979899948987 -0.042998258558103186 -0.04858497972200987 -0.045076211492854595 -0.042077936749802626 -0.04497258723817607 -0.05253677278922446 -0.05969330967325909 -0.06238185392610195 -0.060875447911859296 -0.058756816098106485 -0.058584210495003376 -0.059211294042734064
-0.05773846955685484 -0.05301212766300032 -0.04637301492178878 -0.04009190071322514 -0.0361721538919041 -0.0355136565002601 -0.0367862421434777 -0.03712745209620474 -0.03559831564704075 -0.03500935332464314 -0.038234368049228896 -0.04312099824139882 -0.04336514016161808 -0.03500889973356062 -0.020523039344829883 -0.00579753664341489 0.005755779038313421 0.015344716843550748 0.02572093443497628 0.03692716487342445 0.04574851858990195 0.04957953179056021 0.05003840564178437 0.05158561704532938 0.0567231764540264 0.06389173169663047 0.07037674123999092 0.07559691127417713 0.08010133173232035 0.0828246767933063 0.08260529680802313 0.08263279768444604 0.08905205048800231 0.1023343682500083 0.11356073369033877 0.11369933884859681 0.10495836608287944 0.0989821072568216 0.10465621557354102 0.12118729326215746 0.1426044766662136 0.16485108115917524 0.18678371004202482 0.20720155239528998 0.22440768483603657 0.2387437856212528 0.2532238323789464 0.2705793359306229 0.29063646025867584 0.3112004782457936 0.33056577459487085 0.34842330250904335 0.3652071248367811 0.3818818627627277 0.4004941470439763 0.4239303632440792 0.45411910366439295 0.49083739484787786 0.5343678336622821 0.5889032750602313 0.6549160433534702 0.7085213229733007 0.6951127506374001 0.5665846854943942 0.33763155213179585 0.09290692714032758 -0.07671428809292936 -0.142558044165293 -0.1392032767837195 -0.11131658056867856 -0.07619891802546844 -0.03359138847206311 0.01010604302499418 0.04079777429343108 0.05341953560238728 0.057643198968537535 0.06393654037534019 0.06984397601305888 0.06588608336214218 0.05347214033998973 0.04863223102801563 0.06269781620858864 0.08518674339114755 0.09549531287471759 0.09043230941114162 0.08977807317101337 0.11103944480053331 0.1470873179021602 0.17569605015144768 0.18649729495542633 0.18992567737350563 0.19972701960078212 0.2150511934316895 0.22496875745357733 0.22623645778903612 0.2287541130753167 0.24177104436959704 0.2600671292252514 0.2687201382395603 0.260630451855822
0.24505605387658014 0.23691178422324938 0.24007181125170474 0.24460277508285191 0.24004082512401165 0.2273138615080251 0.21541931705377654 0.20931157979299575 0.20514634818037997 0.19768930614762287 0.1890903512564111 0.18688643202107152 0.19288775797167712 0.19775709945544134 0.1906075922552577 0.1726308705421056 0.15671476929913936 0.15368080218849814 0.16323459855914316 0.1786044249690629 0.19459552237981534 0.20840051409739493 0.21673638602196232 0.21713481373179674 0.2115944097226814 0.20542435746307072 0.20158132752563954 0.19850352480306738 0.19461290816624224 0.19210209636989123 0.19302712997920254 0.1931017221118121 0.18424632483728343 0.16487383896404473 0.14376888103045368 0.13093216860407536 0.1277322180064664 0.12951051596886545 0.13423623209591848 0.14274128400224317 0.15241116970282784 0.15798869916929487 0.1600469666632188 0.1670462418029088 0.1860763718092844 0.21521510655255255 0.2480994024588003 0.28272051533915704 0.32059982684368316 0.35837406582915454 0.38681310857936624 0.4013800511969081 0.40939837807225227 0.4218872747033441 0.4403115798566485 0.4563166241220195 0.4638340161188511 0.4662283471612793 0.4703264054505688 0.4776880056201853 0.4841516978318981 0.485650358226311 0.4827615024163653 0.4804072543905464 0.48242828808151833 0.4848831177140966 0.4771143658022659 0.4531387607787484 0.4202037342519508 0.3918006830000643 0.3733597117376518 0.35928339811136545 0.3434302820486686 0.3268666543453409 0.31289054071551775 0.2987937384995009 0.2778948349029912 0.24931721071306812 0.22075448402410378 0.19913432749939372 0.18182500989193345 0.16075687496626004 0.13371225778793 0.10718944283142708 0.08717457689168218 0.07055636734397501 0.04888757379469325 0.02002968650368132 -0.007446374492510655 -0.0241038119294611 -0.032418207808633095 -0.04539078597200625 -0.07101211262053203 -0.10195546291497899 -0.12382902376284913 -0.13097182748545244 -0.1300486458665089 -0.12932715243599247 -0.12932215810249187 -0.12550831140622784
-0.11650961310084476 -0.10600600831246734 -0.09741011491472079 -0.08965951623730078 -0.07909216271658588 -0.06416998776206656 -0.04774341884706119 -0.035238100477274596 -0.030686569611960146 -0.033747598583508176 -0.039938585050518026 -0.04358976285090062 -0.041216665341364214 -0.0338780193413896 -0.02734323190390233 -0.02799403913554853 -0.03611966402677353 -0.04423000796124863 -0.04410286141877753 -0.0345811963590501 -0.0208768542052453 -0.008114393758848756 0.001887955077705182 0.009015007763774707 0.013630402093492144 0.01763301470755535 0.024704479279925903 0.037866400008529096 0.05635505974495602 0.07521178442882269 0.08901017017986311 0.09666744799676352 0.10162932223898442 0.10680286028472961 0.11164245568626892 0.11598222501080098 0.12335247702734495 0.13615377672424986 0.14968480491377795 0.15656655636731506 0.1570166277346597 0.15961246716727978 0.17059192323580644 0.18650630199842008 0.19941086099428174 0.20597867113092577 0.20880872216695426 0.21114938189003962 0.21382935417539603 0.21677536657251856 0.22041353811120265 0.2247198470765301 0.22878034215887255 0.2321969920348929 0.23525982343708968 0.23686744928783487 0.23509954430791502 0.23222189470642382 0.23531813609861169 0.2464690976879394 0.2549173659210653 0.24701604693217008 0.2248290414719632 0.20746044625032103 0.21039038669075164 0.22841989873429852 0.24314213186763842 0.2437081942198261 0.2351222772506134 0.2279401569505143 0.22629472603566939 0.2277214507797582 0.2294258546301017 0.23038696410765167 0.22951763248936416 0.22595993905327583 0.22098663001403898 0.2164592076443894 0.21133635149468377 0.2034179813973978 0.19573932612882716 0.19640227851204284 0.20774362998511467 0.21920970344567373 0.2174847910871467 0.20311066200690295 0.19108058000624728 0.19363250150615918 0.20708229476226458 0.2180910512929038 0.2195502294855589 0.21629302861086935 0.21588370562909007 0.2183377176142992 0.2179058482879311 0.21254419305549674 0.20654009973441517 0.2029721463964417 0.19838649596600255 0.18834264686190824
0.17527865238893084 0.16667447691576137 0.16667172052556323 0.17306537369863406 0.18121688089371357 0.18678945569847463 0.1856136122130332 0.17618418707989564 0.1637355823992263 0.15799720505389447 0.16443117932757587 0.17924565497616252 0.19419292292432852 0.2044299565428656 0.21028030698755576 0.2133329587116734 0.2138347205510847 0.2120192373763768 0.20949390781008764 0.20771275955964513 0.20603879529821553 0.20287849420298823 0.19850476628415029 0.19513940900923213 0.1937244911070142 0.19239501596617983 0.18995218210968468 0.18920609297349827 0.19293624357813555 0.19650877450736012 0.19006599977244057 0.17148701963726098 0.15301934998393693 0.14972666168426715 0.16276641232776784 0.17874578240118558 0.18524195218030107 0.18232870774351587 0.17779192823369058 0.1757543389654837 0.1740036113742498 0.1706115163257621 0.16843086369530766 0.17136347101138952 0.17841377441672654 0.18383491689166398 0.18332515993376267 0.17902262772784483 0.17759087808440507 0.18366218307853208 0.1970929536785694 0.21799797706615115 0.2511654286464004 0.30009018208965993 0.35735975640853473 0.4073072987658939 0.43989935961698434 0.45685748211175903 0.46209959038623905 0.4517115931393727 0.4180273144452246 0.3615138358876062 0.2949805770393301 0.23581222166277666 0.19445766914864962 0.1691357156096924 0.15100956457503734 0.13502223894960722 0.12437885047125262 0.12182260301192778 0.1179496967692616 0.09451212740676489 0.04337373489361777 -0.020967595068944866 -0.07227254393888567 -0.09440014403278323 -0.08881151541278669 -0.0642512244667901 -0.027723537150758766 0.012963681680340984 0.046373415828037556 0.06461635940234466 0.07170031800042907 0.07905590582824797 0.09130193949175275 0.09996267938988929 0.09450660027369535 0.0782223996951928 0.06824837062133124 0.07738559138812946 0.09957681439138155 0.11797738114077139 0.12509946273138026 0.12878810865916882 0.1384243402767076 0.1518919820008352 0.15872975178622092 0.1515959340551658 0.1324841773844918 0.11188858053155931
0.1032485211318627 0.1121721457684003 0.12754544558011927 0.12872661409793285 0.10709673844858957 0.0779032260072993 0.0660408918772759 0.08122434654236349 0.11071113098265153 0.13522967588844922 0.14740946260578744 0.1536335913678315 0.16245157750094136 0.1756379452410415 0.18973813357654504 0.20212999347868904 0.21348993587606713 0.22587915976467038 0.23985328150404803 0.2522451086852691 0.25608089170949483 0.24586772165092025 0.22611519411219183 0.21157979017867237 0.21334404846872934 0.22541010582524545 0.23085691084364757 0.2215980577450824 0.20616980924447456 0.19646230459290195 0.19291295189171836 0.1872206637702548 0.17588696233263057 0.16519367856450784 0.16319881049428853 0.17157525498705783 0.1862584315534784 0.20171615230343448 0.2119445257522733 0.21102638455411926 0.19817599820607723 0.18201885848039068 0.17443650386526965 0.17773413313400085 0.18227801715978253 0.18029364793722538 0.17727525724852128 0.1836665151846074 0.1986460196613774 0.21076222218670573 0.2150558583788639 0.22131885822732678 0.24124770726624248 0.27234754499471636 0.2994652117362026 0.31023597000214354 0.30516419816525403 0.2935940905460153 0.28372399962512396 0.2771422259125617 0.2701236847793337 0.25866427612104625 0.2434504047779031 0.23027024584243522 0.22385637471897124 0.22133155157421502 0.21489155330029397 0.2019557510153986 0.18784359836166997 0.17478974678227766 0.15410287372670667 0.11779659708943876 0.0758886728044039 0.05183699379914899 0.05772124112144488 0.08067443181854575 0.09694160396229472 0.09375327842704448 0.07487955899740228 0.05224762301196875 0.038932167689557325 0.04561070048232564 0.07400918147109987 0.11115831338947779 0.134280544185629 0.12454796780717096 0.07825232643928608 0.009750436255328208 -0.05250614919270063 -0.07802286197927606 -0.054251762683555374 -0.0008047644751493965 0.04272217530366226 0.05424417885465611 0.055834492492653896 0.09314768865940976 0.18272326949048098 0.2867554019496068 0.3467274544657293 0.3360905440958709
0.2722427691369907 0.18490927222283043 0.09120653613597962 0.005869318001127399 -0.043767457937509795 -0.034661482664201874 0.021310028556501118 0.08099300076963213 0.11150377846393371 0.11859708836145613 0.12724617887065548 0.14449085405198886 0.15418389590930878 0.14287095949676096 0.11468822573981226 0.0798114815131185 0.04406274709683479 0.015900315546052254 0.009694170610760961 0.030842283269003942 0.0645719272067186 0.08889561712134157 0.09509228473125464 0.08935904085919985 0.07948485655058864 0.06849168025269323 0.05932486661792302 0.056756490420829156 0.06233264025445575 0.07339037500577358 0.0897182045643469 0.11453227421528137 0.14277271082201148 0.1546773562228836 0.13277398927856082 0.08520959700096449 0.041631599591831006 0.02354090690637277 0.026554883139890104 0.03244194079850873 0.02914353327825889 0.016384760092624236 0.00038006826049405315 -0.011019065191162214 -0.011245983693255338 0.0028397291739328317 0.03169710311678418 0.07498553060632847 0.12918954021769086 0.18315372808134278 0.2214762714634781 0.23796574687051752 0.24550024217701727 0.2668825056827656 0.3110517358080768 0.36018602388739074 0.38677241393301315 0.3846968814837806 0.3757134509259625 0.3792960327252739 0.3830420557542903 0.35476361046279675 0.2837594975414377 0.19844085589167085 0.13721208242114646 0.10924149054236001 0.0919708657273684 0.06369451084644456 0.02859605205021945 0.006771354825212859 0.006964101870382805 0.01725470615232798 0.0220364360745415 0.020594239663754933 0.024620061591629126 0.041826277147969125 0.06847207454148337 0.09737705362924871 0.12712732088940953 0.1604890063707367 0.19647581346233794 0.22698639000506246 0.24159459254353552 0.23570801058356033 0.2154222800896462 0.19533692284240783 0.19054615117002333 0.20862824919196146 0.24779866661814917 0.3018703212328727 0.3665725961359159 0.4416184246381661 0.5277008518710254 0.6215654280449803 0.7131540867243914 0.7877410598235931 0.8328224294008384 0.8446944688239543 0.8287761202008406 0.7946581768894996
0.7528834957974788 0.7151674924891438 0.6916442455184415 0.6833918766442123 0.6791295013353263 0.6622879119105161 0.6218458410092876 0.5570712198485974 0.4743885666063652 0.3804532298122033 0.2769885148046224 0.16389257347878794 0.05019685749391355 -0.04252399218377137 -0.09835705106434192 -0.13130979551871033 -0.179753679327055 -0.26508026238572296 -0.35904342134717004 -0.40393571621946894 -0.3700913531901619 -0.288989127056751 -0.22473365099504572 -0.2132833248049054 -0.23265615081181268 -0.23287933232373934 -0.19071781434132265 -0.13046322778845756 -0.09229745052939603 -0.08756787628628385 -0.09132643149891025 -0.07630492532068506 -0.04459369997313621 -0.020423420053646068 -0.018366326510755985 -0.029769259841087838 -0.041272343193855476 -0.055598726806056674 -0.08601213100621406 -0.13522937931990273 -0.18897748729940086 -0.23028610469139013 -0.2525684030494275 -0.25668073173041184 -0.2431837086813764 -0.21482228635602127 -0.18316046527179253 -0.16381099839060614 -0.16288659105597944 -0.17354699076317062 -0.18838617850040326 -0.20951201473411712 -0.2401094826248189 -0.2686708897627087 -0.27122829416445715 -0.23433781466201178 -0.17044390203050092 -0.1034425591088004 -0.042501223228076035 0.01951753493889034 0.08062506479363242 0.11566442700691543 0.10004503215259244 0.04558403338612544 0.0006219053719780318 0.0074155404124834215 0.06388147038772832 0.13297064598218905 0.1843514243099756 0.21724666037213164 0.2448287188024293 0.2698104575866143 0.282313181712192 0.2750840670247672 0.25301642008746417 0.22917328412504834 0.2161743240136276 0.21979927648360278 0.23589457125165644 0.25369383470617407 0.26570907952866 0.2731769945556824 0.27846392096008893 0.2759880540390738 0.2585230513450278 0.23099241685889263 0.20684824695445314 0.18612338805161308 0.14690183399974788 0.07012942205013725 -0.028289541820164042 -0.10126758727871976 -0.11346033846855585 -0.07606155785452702 -0.030523976791984066 0.0009627895374075562 0.03733223738128789 0.10567977771743418 0.19636741750581935 0.26402826476217967
0.2736347583831615 0.23578986319159395 0.19182893664853054 0.17118956323095633 0.17108058351582786 0.17236219444492032 0.1614906051933389 0.13491581149668383 0.09654519743207028 0.06112637236753917 0.05117550967223364 0.07694864472830419 0.12080171174734877 0.15205294543412623 0.1591482832758439 0.15947045701586907 0.17467613222182996 0.2031549154340748 0.22287910823197934 0.2189932488762978 0.20195046466411268 0.19607757735876166 0.21443890159402745 0.24992504202830246 0.2897882719688411 0.33153396643613514 0.37888009515421467 0.4241776810688056 0.44154746794552896 0.40272282862602105 0.30284350903678714 0.17250694234130493 0.06264804416888546 0.011414270447337067 0.01988209119088111 0.05762072957546573 0.09050322382441807 0.10205931568344313 0.09224374650791012 0.06619989216427777 0.031047958895953798 -0.0016196225852578455 -0.019885080317479424 -0.019513809491924345 -0.0023936837041849054 0.03222618136178602 0.08561424603489476 0.1448242239274212 0.1800479767413297 0.1689202421149057 0.12371312788951944 0.0858392096978131 0.08894413265445722 0.12967988798657964 0.17576103314362534 0.19908235874007255 0.19866956517046522 0.19445970542308544 0.20358144739927672 0.22427506341955572 0.2409089207118188 0.2416475552878096 0.22987244859383565 0.2203211994593359 0.22715699561215397 0.25448677081379234 0.29218473731756145 0.3173307611529682 0.3049110524415791 0.24703601257246569 0.16700946353885862 0.11074257753588279 0.11561400506232833 0.18168218856691326 0.2718250960041303 0.3393976023790181 0.35680920665703436 0.3244085998375985 0.2619750266253568 0.19500937726417517 0.14242640903890896 0.108414895928632 0.08320253356370841 0.05441439015458576 0.020171246209185353 -0.009750438209588628 -0.026828100092046468 -0.03553557308026997 -0.0483365884580112 -0.06870185136437038 -0.08270717181188016 -0.06992234698739619 -0.021857591437484895 0.05054567511311417 0.12505575893761944 0.1821761035868144 0.21422617437098682 0.2253447951305707 0.22413589505830334 0.21482811915949254
0.19431438574056636 0.15775140920496283 0.10779512875483249 0.060342779980259324 0.04204504555393617 0.07592118554625493 0.15810981959730067 0.2464379204884064 0.28455515275518634 0.2496935127768393 0.17425801717403697 0.11271853055329828 0.09017773546547979 0.09039500120503696 0.08717450931593061 0.07064254932372056 0.04082998794838907 -0.004953903993976035 -0.06207706043561843 -0.1038560163804561 -0.09667621261392942 -0.036550055808872176 0.03910013811034097 0.08463841139042654 0.08840504526136052 0.07672575405851392 0.07898967612634689 0.09694240323412937 0.11134166097373109 0.11150983401306742 0.10768218905832291 0.11280547818942362 0.1223143334430034 0.12085916899938512 0.10536403186508447 0.09053463038501042 0.08800071675122521 0.08835844391176537 0.07337897329470743 0.04465026630063974 0.029700930812547228 0.05313464236242991 0.10595115255711358 0.15111513545222724 0.159456187906735 0.13323394662276417 0.09307431166644686 0.052593652426349786 0.01662134221523913 -0.0024682765212243724 0.01341720989786834 0.06214978230469942 0.1108936219695323 0.12598379596435438 0.11008859702330423 0.09888217002653149 0.12096933182059195 0.16974268889291616 0.2162224286791401 0.24081459511358672 0.24615293734826205 0.24387507418767265 0.23898619370096777 0.23039975960944153 0.21999833650099454 0.21263198395363908 0.20666909038059894 0.19214658359823278 0.1640051911831656 0.1334352474460986 0.11857194504310879 0.12378066125387444 0.13526285367511245 0.14032958690618974 0.1454521207357678 0.169492164475516 0.22040435089331714 0.28198696212763164 0.32286739614600074 0.31839162725748654 0.26972112476632976 0.20693421228678757 0.16922447640683505 0.17354773220185862 0.20167622442247926 0.22200251701866994 0.22117307624402485 0.20749005447102378 0.187548584832233 0.1539389987200459 0.10133878844076126 0.044722357605616624 0.012107668737694076 0.020300746757115407 0.059392262247442096 0.09580791284266206 0.08842093979556936 0.01183720996187313 -0.12228695327114415 -0.2634748881196758
-0.350367530025642 -0.3517246768998775 -0.28612255308329604 -0.20234171414643667 -0.13950867190327346 -0.10378324426272095 -0.07742598065610119 -0.04296195754130262 0.0022793897580887317 0.047682768052692906 0.07865288478973868 0.08609400803322623 0.0719578012443465 0.047522888933869335 0.0252897982666052 0.01118090693321395 0.0031041248822405777 -0.0038667557885835955 -0.00983645426472186 -0.00616348662212967 0.01895542967162776 0.06700799550312378 0.12083518317028001 0.15427218090002917 0.15404820351393023 0.1314461621339544 0.1102268337045578 0.10394084268600037 0.10686003001064096 0.10527398485523144 0.09394899536147198 0.08166194970927838 0.08382099569604913 0.10945373072154252 0.15160954717007996 0.18992964179104252 0.20643685580446117 0.20086978201223443 0.18927643402773583 0.18749600314848644 0.19761656807727643 0.20962002919777728 0.21230197911957263 0.20031480202767613 0.1729787017880522 0.13146148046446857 0.08090111114140662 0.03402397702194391 0.006350019176469234 0.0021176980995822946 0.0068064042443639625 0.0011640827307750753 -0.014979136689844784 -0.01975907672752359 0.0047239120859541356 0.04898206738072354 0.0862143174781155 0.10246871926143816 0.10722975492336824 0.1138698091415787 0.12113153948633476 0.12122715217671554 0.11796634229108803 0.12437927661800752 0.14360336594535728 0.1633564975816425 0.1713147221521197 0.1657748350301919 0.14660348092939257 0.10614220968816195 0.04147994475310867 -0.02551739088176112 -0.05304508779421655 -0.013389196144053612 0.07986518868994186 0.18399582629832648 0.26448879086704863 0.3138179823022383 0.3348652423394921 0.31928562101348323 0.25584424194600697 0.16047824632213734 0.08493108637171598 0.0806181836163022 0.14913290222838396 0.23549879851821662 0.27821567749272114 0.2637456470103718 0.2253742821194439 0.19427268726199107 0.1671882390888873 0.12483955989735224 0.06623143750913238 0.013143655270988682 -0.014022528736887979 -0.016965595770834237 -0.0164036810199412 -0.028888557733556752 -0.044483297398684965 -0.03139831984232465
0.02824354687427194 0.10741600921406315 0.15089471367788015 0.1309309570092679 0.07991010552861426 0.057769211402698147 0.08833977404904739 0.1366146064136987 0.15010752617266623 0.11388807885981735 0.05890463736777192 0.022574599862927393 0.01359299851665628 0.0177000161405759 0.023895596285750074 0.030724507160966103 0.03309856107705265 0.02300912818542381 0.008298944013070667 0.013520791562405245 0.04919567964319995 0.08969157618336894 0.09692336293952199 0.0648633880339245 0.02750169946092845 0.01751573960354782 0.026235701172828668 0.01605952764641974 -0.02795989356102808 -0.07135346211220385 -0.0640214719295217 0.004267162759211951 0.09187449056589529 0.1483615273184611 0.16204541475811696 0.1636414966448759 0.18871340314357427 0.23889338709312705 0.27716611478020314 0.26168873909665824 0.18940314759718116 0.10699471135480024 0.0718925359873943 0.09761875846795419 0.14049417089625055 0.14216443394745146 0.0813432726778067 -0.014372351663518902 -0.09443597626892394 -0.11694909095524395 -0.06986950708060236 0.020679175399940006 0.10492899028989651 0.14677990587945428 0.15181508002134536 0.15318475767366746 0.17042983572798076 0.1906974348437426 0.19152552525534822 0.17065246955054944 0.14549250609580622 0.1309936148314253 0.1292174027149661 0.13773289928521507 0.1560945545695643 0.18140131281610855 0.2061275938478583 0.22474482315620128 0.2369005976207667 0.23948973080912347 0.22075497539471628 0.17225312088228295 0.10969737865682914 0.07243245402843466 0.08973878599993657 0.14720374096329875 0.19692826423448984 0.205464695056283 0.18390411328978548 0.16525978309054573 0.16112816418271947 0.15369008302679218 0.1296575637003656 0.10778125702505004 0.12222968662218288 0.181438656079776 0.25091443751118575 0.27897185061214225 0.23825105440469782 0.14406537283234983 0.03818450416530191 -0.04119436722916518 -0.07790151646327224 -0.07886328230956019 -0.06637192533798386 -0.06581496237385082 -0.0891194243620957 -0.12491372281747125 -0.15023470414868342 -0.15498332021969294
-0.14897519067848247 -0.14258061897600421 -0.13019325100828164 -0.10087043494560106 -0.05840879784917733 -0.020109683113787497 0.002528399860377746 0.013139779976493394 0.021047239312292902 0.03063328023590305 0.041329119978190346 0.050912545849107135 0.05569704373388402 0.05252759624784418 0.04361928865417964 0.034631654560840684 0.023470242800994676 -0.004812847234861253 -0.06308218152023211 -0.13860369848684626 -0.1901268944766047 -0.17840724302458075 -0.10617455318933847 -0.025642716091315867 0.002960822646671663 -0.03244318198779535 -0.08331210712322563 -0.0904381459562671 -0.04496751235342479 0.008003376033380308 0.024651820554689344 0.004559269314895532 -0.032008911829755037 -0.08794381110398827 -0.17483981629044562 -0.2534999152943966 -0.23426441176962207 -0.07230641265305293 0.15878307861243574 0.3292947209681294 0.3860901068758445 0.3886630488178027 0.41045057503538557 0.4437030583079081 0.42713468521168607 0.3432083721974042 0.24870806646614496 0.2050496115244615 0.20756617475084435 0.20234007054492012 0.15851686601246393 0.10130168413004893 0.07394358360089026 0.08554063084526292 0.10555634295597266 0.10168135407109599 0.07324333649535336 0.04742891801748726 0.04856670257230321 0.07502736059769281 0.10537767848026863 0.12252346782052505 0.12733619513870054 0.12946530162633257 0.1313597501533744 0.1267681108203711 0.11267036967955263 0.09569079145469667 0.08431439619342476 0.07878195825604448 0.07165719695707916 0.05696576731362935 0.03797638702693662 0.027539364996805104 0.03929435766988618 0.07301541649037556 0.10669096591032252 0.10858273032310706 0.06310800223745225 -0.015054853693977133 -0.09462928770407313 -0.15478813265854932 -0.19778239934164413 -0.23751870568912703 -0.2794681097743395 -0.31223889986447056 -0.31708199144193605 -0.28620465072558343 -0.23466707782529192 -0.19400142361774342 -0.18850183722983355 -0.2139429694105293 -0.2427803576958331 -0.25213572862627115 -0.24024496717856197 -0.2125206853257602 -0.16319012769084393 -0.08350144100277151 0.015533641585113715 0.10136987305602999
0.14558046711047098 0.14764406684650405 0.13154390228081347 0.1215984483694919 0.1239055504969495 0.1298728607850777 0.13327245253847222 0.14019813527134653 0.16332705032706005 0.21016763032846167 0.27760220962160753 0.35430121209702115 0.42600627506961847 0.48101063040663544 0.5145773793063018 0.5289408211219002 0.5279512306065615 0.5117840687568771 0.47745060226973146 0.424817553942384 0.36326726363488304 0.3118747948731382 0.2874330435305901 0.28709559841569054 0.28578886392500724 0.2574093143354033 0.19924976042271086 0.1324969231117949 0.08027133844433333 0.04906398861486361 0.029604320721216732 0.009301431485004105 -0.018510267037112706 -0.053863811585227274 -0.09428124756517389 -0.1369316130153765 -0.17549122768759778 -0.1981374188226988 -0.1956781185371863 -0.17377358290050265 -0.1514622739423703 -0.14353195160701196 -0.1471292201788158 -0.14805824356521285 -0.13674508547754186 -0.11453907729303796 -0.0866985968355799 -0.05360916250369175 -0.009342213329574564 0.05334407314238716 0.1360740990254741 0.2294740955057285 0.3132248722655396 0.36365376956270273 0.3641318364219234 0.31045634024879176 0.20970818239170066 0.07705625070269595 -0.06694020160268993 -0.19921289579418353 -0.29820619031800416 -0.3505056167937898 -0.35893930180270567 -0.343580365047766 -0.32839344248031554 -0.3228296188599912 -0.3185978783279759 -0.30683903146764047 -0.2948255980234295 -0.2991247290374433 -0.3221697514685554 -0.3448251819130962 -0.34967254428626693 -0.34604331479222916 -0.3600539724380352 -0.39833872335807097 -0.43139702528129487 -0.4187678231872351 -0.34675970021347063 -0.237689499935635 -0.1261161887450952 -0.030982554899598554 0.05290157946551962 0.14494841608114198 0.26114879157867366 0.3972596330985464 0.5245931458079409 0.6083590097816479 0.6364693285091912 0.6283018273265614 0.6117846364465507 0.5952712441897432 0.5665508775898283 0.5169314407028254 0.46020904952650715 0.42636106425003606 0.43757307953916436 0.4877901981230115 0.5424826914160078 0.5621767857697865
0.5347097378166118 0.48786536957166077 0.46661231770592587 0.49379494423251996 0.5523041589418854 0.6059429075448157 0.6368201297764275 0.6599084272649136 0.698924144765679 0.7510114683242682 0.7831807024435644 0.7667338407919417 0.7081826976794969 0.6392809666359802 0.5809148793625991 0.52620068162905 0.45892961213234157 0.37814325739225896 0.29955429711041803 0.24765815087967621 0.27266288652454945 0.4663002948983385 0.8761751953029011 1.3215517105575239 1.3735383790998041 0.7257457474095499 -0.35902302273112086 -1.1602060792807838 -1.199655484254882 -0.7264610167257808 -0.3754627426546825 -0.437498177297329 -0.6371483483649315 -0.5938386618421251 -0.2955738392922829 -0.0293961172778985 0.022257719053118262 -0.037911583920890134 -0.022029520176777104 0.09626955552359609 0.192496611913927 0.17824865081310365 0.09479951368878425 0.02773526025238145 -0.0049140602754721594 -0.04922429241762043 -0.13474124638120621 -0.2370430553850554 -0.3145236007803054 -0.35097059289369675 -0.35365097619352504 -0.3311338639878315 -0.29000135715341824 -0.24446104856899623 -0.21130415955050444 -0.19297779234851592 -0.1765304421648443 -0.1533540639594187 -0.13155967367568755 -0.12303313324411044 -0.1252651316870662 -0.1258187634478879 -0.12333932861342241 -0.13363873954833677 -0.16972106567837403 -0.22156761881898274 -0.2627271521880064 -0.2755883021607265 -0.26483214849218734 -0.24631885058324807 -0.22847213313659795 -0.20729381737896005 -0.17610139067835412 -0.1359361529095239 -0.09675700735770862 -0.07137262729137255 -0.06872332587270695 -0.0899998276239762 -0.12768842241373843 -0.16782353133372788 -0.19668861611979654 -0.20979343514458854 -0.2152324942358671 -0.22604163739971317 -0.2483226568121704 -0.27772534378512664 -0.3064321178608951 -0.32994947823770776 -0.34537042128436435 -0.34627915470664444 -0.3250612522774542 -0.28249867544663976 -0.23097600980516653 -0.18242172018618788 -0.13396017773646726 -0.07286375547222411 0.0015752873941050662 0.06879162991173625 0.10706176978913115 0.11902672071202301
